16398
16561
16607
226
43
59
16523
16553
16555
16567
16577
16581
16587
16591
16609
16617
16619
16625
16635
16659
16667
3
27
51
53
131
167
189
215
221
225
257
259
16460
16464
16482
16512
16524
16696
40
129
203
205
215
237
253
16498
16528
16536
16542
16556
26
58
110
280
16608
16624
16638
16686
16487
12
30
80
90
106
108
172
16447
16455
16495
16511
16553
16567
16623
16629
16633
16673
16679
131
191
225
16420
16424
16436
16452
16466
16484
16516
16580
204
206
208
222
226
288
304
16406
16618
16650
16662
246
7
16471
16507
16557
16585
16593
16599
16623
16647
16651
16681
16693
290
77
247
16461
16555
16667
16695
173
191
199
201
209
213
217
223
227
307
311
315
16472
16490
16529
244
280
173
16532
16659
16679
54
56
277
319
16652
16399
134
3
179
273
289
16543
16615
16627
16645
16647
16677
16679
16693
176
195
16436
16454
16528
16538
296
39
225
16392
16659
16689
16691
16701
67
75
89
93
123
137
149
159
165
215
239
251
16648
16441
48
110
186
188
206
236
238
248
16681
16687
16689
16701
58
66
98
132
154
178
16530
16538
16550
16552
16568
16600
16628
16632
107
149
165
207
237
241
247
265
267
271
299
16534
16550
16566
16594
16598
16397
16429
16475
312
105
16654
16489
16491
16553
201
205
223
235
255
259
271
273
287
309
16401
16405
16429
214
9
157
16428
16494
16654
16680
18
66
82
86
130
150
178
16497
16527
16543
16547
16565
16581
16583
16593
16595
16601
16615
16619
16633
16667
16681
127
143
175
177
187
201
203
207
213
251
253
16684
16439
16551
274
77
16394
16416
16524
16556
16634
316
91
103
135
151
167
213
16394
16573
114
23
57
16612
16642
16493
24
74
134
168
16498
16508
16522
16528
16576
16590
114
116
299
16468
16631
16681
172
15
297
16455
16483
16557
16569
16573
16599
16605
16615
16617
16619
16627
16647
16681
119
147
157
171
193
195
209
253
267
271
275
285
16464
16474
16494
16522
16560
110
142
174
188
254
245
16600
16415
16429
16543
16687
124
136
138
168
16678
16423
286
201
277
16593
16621
16631
16663
16669
16677
32
48
192
206
212
312
16604
16698
16700
16425
114
138
184
244
16390
16402
16546
16459
16685
28
60
64
124
158
16392
16647
16671
39
55
85
119
277
283
299
313
317
16474
16540
16661
75
159
16674
16393
16495
16
281
285
16452
16679
16683
172
220
27
57
16490
16659
16671
16675
47
61
65
77
99
107
113
121
151
193
195
245
317
16644
16387
16391
22
24
26
148
16388
16535
16627
48
126
232
270
278
16462
16478
16534
16574
16618
118
136
164
186
218
250
16384
16416
16498
16528
16542
16558
16560
22
237
275
301
16498
16504
16526
16528
16568
16572
16576
14
51
147
195
211
235
237
239
269
16638
16399
16415
76
92
158
168
190
16541
16589
16595
16605
16613
16615
16619
16621
16637
16649
16673
16681
16703
118
245
305
16590
16397
16413
136
156
192
208
238
16646
16389
16405
16423
16429
16
56
192
16576
16580
16598
16614
16624
16626
16628
272
286
290
69
16414
16605
16617
16619
16623
16651
16653
16655
16657
16669
16681
16687
16701
28
55
71
133
135
245
16402
16486
16522
16570
16586
16612
12
28
315
16474
16531
4
12
124
126
16682
16415
16433
16479
290
3
16688
16690
16471
16581
4
305
16479
16551
16559
16609
16617
16637
16655
16669
16671
16679
16693
16703
10
180
226
319
16406
16581
16661
246
276
47
63
16409
16467
16501
16503
16517
16523
16529
16543
16605
111
125
155
225
233
237
251
253
287
293
307
16596
16471
16523
264
99
16596
16632
16413
33
101
103
16546
16413
16419
11
43
99
109
139
149
185
203
205
207
237
251
293
16430
16510
16538
16622
16668
16696
96
11
295
311
313
317
16506
16677
154
200
31
16403
16681
16685
16693
16701
288
41
97
16494
16542
16574
16584
16664
47
85
95
115
117
125
139
149
175
179
191
197
201
205
227
229
253
291
16528
16629
16679
155
203
213
255
16676
16513
140
176
281
313
16548
16573
16635
6
54
181
16622
16399
16445
16451
90
118
168
314
16474
16522
16550
16628
16644
314
121
135
193
16438
16484
16490
16516
16536
16548
16584
292
157
175
16454
16488
16590
312
43
103
16450
16466
16482
16498
16657
78
96
192
247
263
49171
49175
49177
49183
49187
49191
49193
49201
49205
49211
49215
49221
49223
49225
49235
49245
49253
49257
49259
49289
49295
49301
49309
49311
49313
49317
49319
49325
49329
49353
49361
49367
49371
49373
49381
49387
49391
49395
49409
49429
49431
49433
49435
49439
49449
49453
32830
32834
33010
32823
32855
32919
49184
49278
49418
49281
32808
33060
33066
33068
33082
32977
49184
49302
49388
49251
32779
32789
32791
32795
32799
32811
32813
32819
32821
32827
32833
32843
32853
32865
32869
32873
32877
32885
32889
32901
32917
32919
32923
32931
32933
32935
32945
32947
32959
32965
32969
32973
32983
32989
32997
33013
33015
33027
33029
33035
33039
33043
33051
33057
33061
33075
33081
33087
49155
49159
49173
49177
49179
49181
49183
49201
49203
49211
49219
49221
49235
49239
49249
49253
49255
49263
49273
49283
49285
49291
49299
49303
49307
49309
49313
49319
49325
49345
49359
49371
49373
49375
49383
49397
49399
49403
49421
49427
49431
49433
49435
49445
49451
49459
49471
32786
32798
32866
32960
32962
32992
33074
32839
49286
49308
49318
49360
49386
49392
49408
49450
33062
32823
32831
32903
49155
49167
49187
49191
49195
49215
49231
49233
49235
49245
49247
49259
49269
49281
49289
49333
49351
49397
49405
49413
49415
49453
49465
49469
49471
32874
32908
33008
33044
33052
49220
49224
49400
49412
32771
32779
32783
32791
32793
32809
32821
32823
32833
32835
32837
32839
32843
32861
32867
32879
32881
32885
32887
32897
32899
32909
32913
32933
32949
32967
32983
32985
32993
32997
32999
33001
33011
33027
33029
33031
33035
33049
33071
33075
33079
33083
33087
49282
49379
32786
32816
32912
33056
49466
49375
32773
32785
32797
32803
32807
32811
32813
32817
32823
32825
32827
32837
32839
32851
32859
32863
32869
32871
32877
32879
32887
32889
32891
32905
32907
32909
32917
32919
32925
32927
32931
32933
32943
32955
32957
32981
32989
32991
32993
33001
33009
33015
33017
33021
33035
33039
33047
33049
33053
33063
33067
33071
33077
33087
49157
49163
49169
49205
49207
49211
49235
49241
49247
49251
49265
49267
49271
49273
49277
49279
49285
49303
49313
49315
49329
49361
49369
49377
49381
49383
49403
49411
49417
49431
49435
49437
49447
49449
49459
49467
32804
33080
33021
49362
49396
49183
49217
32776
32846
33026
33052
49212
49157
49273
32770
32868
32870
32918
33046
32847
49153
49155
49165
49167
49169
49185
49195
49199
49213
49215
49221
49243
49245
49257
49259
49267
49275
49277
49281
49291
49293
49295
49315
49323
49325
49351
49355
49357
49361
49363
49369
49373
49383
49385
49397
49399
49411
49417
49421
49433
49453
49465
49471
32772
32846
33046
32921
49170
49172
49446
49435
32778
32808
32956
33026
33060
33072
49212
49240
49306
49358
49400
49418
49464
49470
32842
32930
33006
32785
49157
49165
49175
49177
49185
49189
49195
49197
49201
49209
49213
49219
49221
49223
49245
49253
49255
49257
49259
49265
49271
49273
49279
49291
49295
49307
49309
49317
49329
49337
49349
49359
49361
49375
49381
49383
49385
49391
49429
49443
49453
49467
49471
32812
32846
32936
33070
49178
49196
49274
49308
49350
49438
32842
33022
33058
32955
49170
49449
32800
32982
33068
33084
49232
49438
49271
32782
32910
33086
32901
33013
49153
49157
49159
49169
49175
49181
49183
49197
49199
49203
49209
49221
49231
49233
49239
49243
49249
49255
49259
49263
49269
49271
49287
49295
49309
49313
49315
49331
49333
49337
49343
49349
49353
49357
49373
49383
49395
49409
49413
49419
49421
49425
49437
49439
49443
49449
49459
49463
49471
32791
32803
32849
32855
32859
32883
32903
32911
32935
32943
32957
32965
32993
33015
33025
33033
33047
33069
33079
49188
49190
49366
49430
49464
49311
32820
32936
33016
49166
49352
49358
49372
49317
32946
33042
33074
32807
32839
32935
32999
49153
49167
49171
49177
49189
49191
49195
49213
49219
49223
49227
49247
49249
49253
49255
49269
49271
49273
49287
49295
49297
49301
49309
49317
49325
49341
49351
49353
49367
49371
49373
49383
49389
49391
49411
49419
49429
49441
49443
49449
49467
49471
32902
33078
32975
33033
49262
49328
49460
49431
32769
32773
32775
32779
32785
32795
32813
32815
32819
32823
32829
32835
32839
32847
32857
32863
32867
32883
32897
32899
32903
32907
32925
32929
32937
32951
32967
32969
32991
32993
32999
33005
33009
33011
33015
33023
33035
33037
33045
33051
33067
33069
33081
33087
49394
49408
49463
32896
32914
32934
32942
32988
33010
33020
33024
33052
33056
49153
49167
49169
49173
49179
49191
49205
49217
49225
49231
49233
49235
49237
49241
49243
49249
49261
49263
49267
49269
49273
49279
49285
49289
49297
49321
49335
49351
49359
49365
49383
49393
49403
49425
49427
49431
49441
49459
49461
49463
49467
32786
32854
32906
33012
33078
49244
49292
49442
49447
32769
32775
32779
32785
32799
32817
32825
32833
32837
32853
32869
32885
32889
32893
32899
32903
32919
32923
32929
32931
32933
32939
32943
32951
32959
32977
32981
32995
32997
32999
33009
33031
33047
33049
33053
33073
33079
49154
49194
49358
49374
49450
49456
32810
33002
33018
33034
32945
49156
49170
49350
32796
32900
32998
33078
49206
49256
49334
49277
32786
32794
32796
32798
32986
33028
33084
49157
49173
49175
49177
49179
49181
49183
49187
49191
49201
49203
49207
49209
49221
49223
49231
49235
49241
49243
49245
49247
49251
49255
49257
49273
49275
49277
49293
49311
49313
49315
49317
49327
49341
49343
49347
49353
49357
49369
49377
49383
49391
49407
49409
49425
49429
49445
49447
49463
49471
32768
32942
33038
49187
49431
32828
33012
32851
32911
49280
49362
49392
49285
32856
32880
32990
49164
49418
32828
32910
33054
33074
33079
49164
49306
49422
49255
49287
49383
32771
32773
32779
32785
32793
32803
32813
32815
32819
32821
32825
32831
32837
32847
32851
32857
32877
32885
32887
32907
32909
32919
32921
32929
32933
32947
32955
32961
32963
32989
33001
33023
33035
33037
33047
33051
33067
33071
49324
49350
49394
49404
49436
49454
49468
32800
32844
32914
32920
33074
33086
49182
49282
49374
49253
32828
32888
33052
33074
32769
49165
49173
49189
49207
49213
49245
49247
49251
49255
49257
49265
49271
49273
49275
49285
49299
49309
49317
49321
49337
49353
49383
49419
49423
49435
49439
49453
49465
32780
32918
32952
49288
49436
49365
32840
32842
33052
33076
49244
49292
49362
49392
32773
32775
32785
32789
32793
32795
32797
32803
32807
32815
32819
32825
32827
32833
32837
32843
32845
32853
32855
32865
32869
32883
32895
32897
32901
32905
32907
32917
32919
32927
32933
32937
32943
32949
32959
32963
32967
32983
32987
32993
33003
33007
33011
33013
33019
33029
33031
33045
33055
33059
33073
33079
33085
49456
49317
49379
49461
32774
32812
32958
33050
33064
49153
49155
49165
49171
49181
49183
49187
49189
49199
49207
49231
49235
49249
49251
49267
49269
49271
49281
49309
49317
49321
49323
49329
49339
49345
49355
49361
49377
49381
49383
49387
49401
49405
49415
49429
49439
49441
49447
49449
49451
49453
49461
49471
32771
32773
32795
32807
32809
32819
32825
32827
32831
32835
32837
32871
32873
32875
32877
32879
32881
32883
32885
32887
32895
32899
32905
32937
32939
32945
32947
32963
32965
32967
32969
32987
32989
32995
32997
32999
33003
33005
33009
33015
33019
33023
33025
33027
33037
33039
33055
33067
33071
33075
33083
33085
33087
49155
49169
49177
49195
49197
49199
49207
49211
49215
49221
49223
49227
49237
49245
49253
49259
49269
49271
49283
49285
49291
49299
49301
49313
49317
49319
49345
49355
49357
49375
49393
49395
49399
49401
49407
49417
49425
49427
49433
49435
49437
49453
32798
33084
32867
49390
49414
49297
49331
32888
32982
49252
49281
49467
32793
32797
32799
32801
32809
32825
32859
32903
32905
32907
32915
32925
32935
32949
32983
32995
33049
33053
33077
33081
33083
49201
49207
49211
49213
49215
49219
49233
49271
49273
49297
49301
49317
49325
49327
49355
49381
49403
49413
49421
49437
49445
49461
49463
49469
32980
33046
32971
49308
49360
49245
32856
32914
32924
33006
33060
49158
49400
49409
32779
32785
32799
32807
32817
32823
32829
32831
32837
32847
32849
32853
32857
32861
32863
32871
32883
32885
32907
32911
32913
32921
32923
32927
32933
32945
32949
32961
32965
32971
32973
32981
32985
32987
32997
33015
33017
33023
33027
33035
33037
33067
33071
33085
49182
49196
49226
49272
49283
32780
32975
49184
49328
32786
32818
32934
32968
33010
33030
33074
49153
49157
49161
49169
49173
49195
49199
49201
49203
49221
49227
49229
49235
49241
49249
49257
49267
49271
49279
49285
49295
49303
49307
49317
49323
49341
49349
49351
49353
49355
49367
49375
49409
49413
49419
49431
49447
49463
49469
49471
32773
32775
32777
32779
32785
32799
32809
32815
32833
32837
32851
32857
32859
32861
32873
32883
32887
32899
32905
32913
32917
32931
32933
32935
32949
32957
32963
32965
32967
32971
32979
32983
32989
33005
33019
33021
33023
33031
33033
33053
33059
33071
33077
33085
49178
49232
49434
49456
32769
32775
32779
32783
32785
32787
32789
32791
32793
32795
32799
32801
32807
32827
32829
32831
32841
32843
32851
32855
32857
32859
32871
32873
32885
32893
32897
32899
32913
32925
32929
32931
32935
32939
32949
32951
32953
32959
32965
32967
32971
32973
32977
32983
32995
32999
33007
33011
33015
33023
33027
33029
33037
33039
33047
33049
33051
33053
33059
33065
33067
33073
33083
33087
49164
49224
49260
49298
49304
49368
49404
32842
32844
32898
32946
32958
33052
49160
49382
49442
32768
32788
32810
33074
49184
49204
49286
49428
49430
49446
49468
32773
32777
32781
32789
32791
32793
32801
32809
32815
32817
32823
32825
32827
32829
32837
32843
32857
32859
32863
32865
32871
32875
32877
32879
32881
32889
32897
32903
32911
32913
32925
32933
32941
32943
32945
32961
32983
32987
32993
32995
33003
33005
33027
33029
33041
33043
33051
33055
33065
33067
33071
33075
33085
49161
49163
49195
49205
49209
49211
49229
49257
49259
49267
49269
49275
49285
49289
49299
49313
49317
49327
49331
49337
49345
49357
49365
49377
49381
49387
49393
49401
49403
49405
49417
49423
49427
49443
49445
49467
49471
32866
49246
49308
49263
32872
32904
33046
32875
49162
49425
32808
32868
33050
32953
49184
49228
49282
49358
49175
49239
32816
32832
32962
32935
33047
49338
49454
49466
49255
49321
32768
32978
33019
33081
49244
49334
49388
49414
49305
32796
32836
33014
33076
32821
49170
49186
49368
49458
32958
32992
33054
32877
32885
49169
49183
49185
49203
49217
49221
49269
49271
49277
49319
49341
49357
49363
49371
49375
49377
49385
49393
49399
49405
49407
49421
49427
49453
49461
49463
49471
32876
32952
33054
49154
49442
49215
32820
32914
32924
32951
49160
49232
49302
49394
49424
32775
32783
32791
32793
32795
32799
32801
32823
32827
32833
32837
32845
32871
32881
32883
32885
32887
32889
32893
32903
32905
32911
32913
32919
32921
32925
32927
32935
32937
32939
32941
32947
32949
32955
32967
32975
32977
32983
32989
32993
32995
33011
33019
33031
33057
33073
33081
49406
49299
49365
49395
32786
32924
32950
32951
49270
49464
49435
32806
32830
33004
49194
49384
49464
49291
32775
32777
32795
32799
32809
32811
32813
32815
32821
32829
32841
32855
32857
32869
32873
32885
32893
32895
32899
32901
32915
32929
32933
32937
32939
32971
32973
32983
32987
32989
32993
32995
33003
33007
33037
33043
33047
33049
33051
33055
33059
33073
33079
49166
49420
49438
49385
49429
32844
32932
32970
33014
33074
49155
49159
49163
49169
49179
49185
49197
49203
49205
49213
49219
49221
49229
49231
49239
49255
49259
49267
49273
49277
49279
49301
49319
49325
49333
49357
49363
49375
49383
49385
49399
49401
49403
49419
49431
49447
49453
49461
49467
32790
32872
32950
32968
32980
33048
49164
49308
49354
49404
49428
49462
32840
49342
49422
49444
49448
49335
49385
32781
32783
32785
32795
32807
32823
32831
32833
32841
32879
32887
32893
32907
32911
32927
32945
32949
32979
32991
32997
33007
33021
33029
33057
33059
33061
33063
33081
33087
49182
49406
49422
49413
32786
32820
32831
32923
49155
49163
49181
49191
49193
49201
49205
49209
49223
49241
49247
49251
49263
49303
49311
49313
49337
49343
49347
49351
49353
49369
49371
49377
49383
49403
49411
49417
49443
49449
49461
32822
32998
33046
33058
33078
32927
49178
49267
49433
32770
32822
33060
33080
16592
84
16692
16385
16387
16441
16443
16451
16453
16459
16463
16465
16467
16469
16483
16485
16501
16521
16529
16533
16535
16537
16555
16565
16567
16569
16579
16585
16587
16591
16599
16601
16603
16605
16611
16617
16621
16635
16651
16655
16667
16679
16685
292
69
75
83
85
97
99
101
137
149
153
157
191
201
16385
16387
16389
16391
16399
16403
16407
16409
16441
16455
16485
16501
16509
16521
16531
16537
16541
16549
16553
16555
16579
16581
16631
16635
16649
16663
16675
16677
16679
16683
16699
208
16468
16654
12
44
317
16596
16401
16477
16651
16687
16695
16387
16389
16423
16425
16433
16437
16445
16449
16451
16453
16459
16467
16481
16483
16485
16487
16497
16499
16501
16521
16529
16531
16533
16535
16537
16539
16541
16555
16559
16565
16567
16569
16575
16577
16579
16581
16585
16587
16591
16593
16595
16601
16611
16617
16621
16635
16645
16649
16651
16653
16655
16657
16661
16665
16679
316
16444
3
5
9
11
19
37
39
45
63
65
67
69
73
75
83
85
95
97
99
101
103
105
113
115
117
125
127
129
131
133
135
145
147
149
151
155
157
169
171
181
183
191
193
201
203
205
207
209
217
219
221
233
237
243
247
257
259
261
263
267
271
279
287
289
291
309
311
16393
16399
16405
16407
16423
16449
16453
16455
16459
16467
16469
16471
16479
16483
16485
16489
16497
16499
16501
16513
16517
16523
16533
16535
16537
16555
16569
16575
16577
16585
16587
16613
16621
16631
16635
16645
16649
16651
16677
16679
16689
138
16524
246
16387
16389
16395
16407
16417
16423
16445
16449
16451
16453
16459
16467
16469
16479
16481
16483
16485
16499
16517
16529
16531
16533
16535
16537
16549
16575
16577
16581
16585
16587
16589
16591
16609
16613
16615
16617
16629
16631
16635
16649
16651
16655
16665
16675
16679
16693
16699
308
3
53
69
85
97
101
115
133
149
157
171
181
183
185
193
197
203
265
271
16452
16387
16389
16393
16395
16409
16429
16433
16443
16449
16451
16459
16463
16465
16467
16479
16481
16483
16485
16487
16497
16499
16501
16529
16531
16537
16539
16541
16555
16567
16569
16575
16577
16579
16585
16587
16589
16591
16593
16595
16603
16611
16617
16621
16631
16635
16649
16651
16655
16673
116
97
101
115
191
237
16404
16602
12
152
214
236
16582
16533
106
16488
16485
3
5
13
19
21
23
27
31
37
39
41
49
51
59
61
65
67
69
75
81
83
85
95
97
99
101
103
115
117
121
123
133
139
141
145
149
151
153
169
175
177
183
191
193
199
201
219
229
231
247
259
263
265
269
271
295
299
301
309
313
315
317
16428
3
5
9
11
17
19
23
25
33
35
39
51
55
59
61
63
67
69
75
81
83
87
91
97
99
101
105
115
129
133
141
145
147
149
151
153
157
159
165
171
175
185
195
203
209
213
217
219
225
229
237
265
267
269
271
277
297
309
315
16401
16451
16453
16469
16485
16499
16521
16589
16655
16681
16699
6
100
282
16454
16676
52
19
16404
16618
16450
152
16544
6
106
298
16474
16506
52
3
5
11
17
55
59
61
75
91
95
97
99
101
103
109
115
151
153
157
161
175
181
191
207
217
221
237
247
251
261
269
277
287
293
301
3
5
9
17
21
43
49
59
61
63
65
67
69
73
75
81
83
85
89
95
97
99
101
103
113
115
117
121
123
131
135
139
145
149
151
155
157
165
169
173
175
177
185
191
193
195
203
205
207
209
217
219
223
231
233
237
251
257
259
261
267
273
289
295
311
16412
3
5
15
21
27
55
61
65
67
69
75
77
85
89
91
97
99
101
115
117
121
135
137
147
149
151
153
157
161
167
183
189
191
193
197
201
213
219
227
229
233
251
271
277
287
293
295
309
317
319
16410
180
101
137
16387
16389
16395
16399
16435
16437
16445
16451
16453
16455
16459
16467
16469
16481
16483
16499
16513
16521
16527
16533
16535
16537
16541
16543
16547
16555
16557
16565
16575
16581
16585
16587
16593
16603
16615
16617
16629
16631
16635
16641
16645
16651
16677
16679
16683
16693
16699
16402
16640
182
16404
220
274
16484
180
13
23
65
79
91
95
99
103
115
121
127
129
135
157
177
201
237
241
273
16474
16508
270
69
75
83
97
99
101
149
171
183
197
237
247
251
267
295
120
16588
16590
276
3
9
11
15
17
19
23
25
39
45
61
65
71
75
81
87
95
99
101
103
113
129
147
155
171
175
179
183
185
197
199
207
209
237
247
251
265
271
287
16387
16391
16393
16395
16399
16401
16403
16407
16409
16411
16413
16415
16417
16421
16423
16429
16433
16435
16439
16443
16445
16449
16451
16455
16457
16459
16463
16465
16467
16471
16479
16481
16483
16487
16489
16493
16497
16499
16503
16505
16509
16513
16515
16519
16521
16523
16525
16529
16531
16535
16537
16539
16541
16551
16555
16557
16559
16561
16563
16565
16567
16569
16575
16577
16579
16585
16587
16589
16591
16593
16595
16601
16603
16605
16611
16615
16617
16621
16623
16631
16635
16649
16651
16653
16655
16663
16665
16667
16671
16673
16675
16679
16683
16685
180
11
19
21
23
47
49
55
63
67
83
97
103
115
139
189
191
237
247
255
259
301
16436
16574
16670
200
16670
16522
16558
7
9
11
13
15
19
21
29
31
33
39
47
55
59
61
63
65
67
69
73
83
85
93
95
97
103
105
107
113
119
121
123
131
133
135
137
139
147
149
153
165
169
171
173
175
179
189
193
195
199
201
205
207
217
219
227
233
235
247
251
257
265
267
271
273
283
289
291
299
301
303
307
315
16387
16401
16421
16429
16439
16443
16445
16449
16459
16475
16483
16485
16513
16529
16533
16567
16579
16585
16591
16593
16595
16603
16617
16621
16631
16635
16649
16651
16663
16679
1
5
7
9
15
17
19
31
39
43
47
57
67
77
81
87
91
97
99
113
115
131
133
137
141
151
153
155
157
159
171
173
175
177
179
191
201
203
215
217
221
225
233
237
247
259
265
267
271
281
287
289
291
305
309
315
319
16387
16389
16391
16393
16395
16397
16399
16401
16403
16407
16411
16413
16415
16417
16419
16421
16423
16425
16429
16431
16433
16435
16439
16443
16445
16447
16449
16451
16453
16457
16463
16465
16467
16471
16473
16475
16479
16481
16483
16497
16507
16509
16511
16513
16519
16521
16523
16531
16533
16537
16539
16551
16553
16555
16561
16563
16571
16573
16575
16579
16583
16585
16587
16589
16591
16595
16597
16601
16603
16605
16611
16615
16617
16621
16623
16625
16631
16635
16637
16643
16647
16655
16663
16671
16673
16675
16679
16685
16689
16699
68
11
17
23
25
27
29
31
43
45
55
57
59
61
65
67
71
75
79
81
87
89
95
97
99
103
105
109
113
115
125
129
135
137
145
147
151
153
157
171
173
175
177
179
183
185
193
195
199
201
205
209
211
221
223
225
227
231
237
241
243
247
249
251
257
263
265
267
271
273
283
287
291
295
299
301
303
305
311
16432
138
318
16387
16389
16391
16393
16399
16407
16409
16417
16429
16433
16435
16441
16451
16463
16465
16467
16479
16483
16485
16487
16501
16503
16507
16513
16519
16523
16525
16531
16533
16535
16537
16549
16557
16561
16565
16575
16579
16581
16595
16611
16621
16623
16637
16649
16671
16683
16687
16689
16693
84
3
83
99
101
115
137
147
153
157
203
209
233
251
295
16387
16389
16391
16399
16421
16425
16429
16437
16449
16451
16455
16459
16467
16469
16479
16481
16483
16485
16487
16497
16499
16517
16521
16531
16541
16557
16563
16565
16571
16575
16579
16581
16589
16593
16595
16611
16617
16621
16635
16643
16649
16651
16653
16655
16677
16679
16689
16693
16697
132
69
101
115
149
16430
16656
3
5
13
21
23
39
47
69
83
101
115
121
125
133
135
149
155
185
231
257
269
279
289
16436
16485
152
83
85
101
103
117
147
149
155
195
201
209
233
271
16534
138
15
19
59
69
101
151
165
175
237
16550
16393
16407
16425
16453
16467
16469
16485
16493
16499
16505
16531
16533
16549
16551
16559
16561
16579
16581
16593
16595
16621
16637
16641
13
69
73
81
83
87
101
103
105
115
157
177
189
191
221
231
279
16640
28
16464
136
262
16387
16389
16393
16395
16399
16401
16407
16415
16417
16423
16433
16435
16443
16445
16447
16449
16451
16459
16463
16465
16467
16473
16479
16481
16483
16485
16487
16497
16501
16503
16513
16517
16519
16521
16523
16529
16531
16535
16537
16539
16549
16555
16559
16561
16563
16567
16569
16575
16577
16579
16585
16587
16589
16591
16593
16595
16601
16603
16611
16615
16617
16621
16631
16635
16637
16641
16643
16649
16655
16661
16663
16667
16671
16675
16679
44
16574
192
16492
16554
16680
68
16594
130
16502
148
19
49
51
129
135
179
235
273
277
313
16622
76
84
16492
69
85
101
149
201
16546
16524
16655
3
11
21
23
31
37
39
45
69
75
81
83
85
87
91
99
101
115
119
129
149
151
153
157
171
183
197
199
201
207
209
219
223
227
237
245
261
263
267
287
295
309
16387
16389
16397
16409
16411
16413
16419
16445
16457
16459
16467
16469
16471
16473
16483
16485
16493
16503
16507
16515
16521
16537
16539
16541
16549
16575
16577
16587
16593
16597
16601
16605
16611
16625
16635
16641
16647
16651
16653
16679
16681
16693
16697
16385
16387
16391
16393
16395
16397
16399
16401
16403
16405
16407
16409
16411
16415
16427
16439
16441
16443
16451
16453
16455
16459
16467
16469
16473
16481
16483
16485
16487
16489
16493
16495
16497
16499
16501
16503
16507
16527
16533
16535
16537
16541
16543
16549
16557
16561
16565
16567
16577
16579
16585
16589
16595
16601
16609
16613
16617
16635
16647
16663
16669
16677
16679
16683
16685
16687
16699
186
16484
20
172
16387
16393
16417
16423
16429
16433
16435
16439
16447
16449
16451
16453
16459
16463
16465
16467
16469
16471
16479
16483
16485
16487
16499
16501
16513
16533
16535
16539
16541
16549
16553
16565
16577
16581
16583
16585
16587
16589
16595
16613
16617
16625
16635
16645
16649
16651
16655
5
9
17
19
21
23
31
39
43
45
49
63
67
69
75
83
85
97
101
103
113
115
117
121
125
145
149
151
155
157
161
163
177
181
195
197
201
203
227
229
231
237
239
247
249
257
261
263
265
271
277
287
295
309
16574
28
252
16440
16478
74
25
59
16560
50
16440
16580
16604
24
158
16416
60
16468
16519
16557
82
16430
16602
24
16385
16391
16407
16445
16451
16453
16457
16459
16467
16469
16483
16489
16497
16499
16505
16519
16527
16529
16535
16537
16543
16547
16553
16563
16571
16577
16587
16599
16603
16629
16635
16641
16643
16649
16667
16675
16685
16695
16701
260
49
133
139
149
201
227
16387
16389
16407
16411
16415
16427
16433
16435
16443
16451
16453
16457
16459
16463
16467
16469
16471
16483
16485
16487
16499
16501
16505
16513
16517
16521
16533
16535
16537
16539
16547
16561
16565
16577
16581
16587
16589
16593
16595
16601
16605
16611
16627
16637
16645
16649
16655
16669
16671
16673
16677
16679
16685
16693
3
5
9
11
13
17
27
33
41
45
49
59
63
65
67
71
75
77
79
81
83
85
89
93
95
97
99
103
109
113
115
121
131
135
137
139
145
147
151
153
155
157
165
169
171
173
175
177
181
183
187
191
193
195
199
201
203
205
207
209
211
217
221
227
233
237
241
247
251
253
263
265
267
271
287
295
305
307
16466
308
9
25
49
67
69
75
101
103
113
115
129
147
149
151
153
155
157
179
201
229
247
251
267
279
291
295
16492
3
69
85
99
101
115
117
149
153
181
295
16630
132
7
17
33
45
49
65
67
71
75
79
85
95
109
143
165
173
183
191
195
203
205
219
233
251
257
259
287
16387
16389
16393
16395
16399
16401
16403
16407
16409
16411
16415
16417
16421
16423
16429
16433
16441
16443
16445
16449
16455
16457
16479
16481
16483
16485
16487
16493
16497
16499
16501
16507
16513
16517
16519
16521
16529
16539
16541
16549
16553
16555
16557
16559
16563
16567
16575
16577
16587
16589
16591
16593
16595
16601
16603
16605
16611
16615
16621
16623
16635
16637
16651
16653
16655
16661
16667
16671
16673
16675
16677
16685
16689
16699
92
16626
188
49450
32774
49292
33026
49470
33070
49182
33072
49294
32838
49286
33080
32805
32859
49408
33048
49420
33036
49278
32808
49258
32854
49164
32822
49398
33058
49438
32992
49328
32958
49162
49407
32768
49162
32774
49464
32928
49182
33070
49308
33074
49258
32978
49218
33086
49166
33082
49158
33072
49442
33008
49194
32774
49162
49182
33036
49330
32788
32804
49166
32784
49308
32798
49300
49396
32854
49238
32854
49210
32774
49388
33030
33062
49378
32782
32997
49206
32854
49168
32978
49166
32862
49354
49442
32870
32881
32943
33025
33073
49166
32818
49470
32994
33082
49200
32802
49452
32934
49470
32798
49336
49352
32802
49298
32778
49298
32914
49232
32964
33028
33034
49308
32910
49190
49233
49291
49333
49339
49341
49393
49429
49445
33020
49254
33026
49470
33016
33064
49408
33058
49224
33046
49258
32970
49186
33086
49464
33084
49176
49206
49345
49365
49377
49379
49381
49413
49425
49457
32948
33065
49408
32994
49416
49432
32784
49166
32774
49274
32938
33042
49350
32782
49168
33014
49238
32808
49156
49179
49413
33046
49418
32778
49330
32902
49298
49300
32988
49446
32876
49422
33004
49188
32774
49166
32920
49176
49206
49237
32780
49442
32774
16387
16573
16577
9
51
83
121
215
315
16394
16428
16518
16534
16548
16576
16646
34
70
130
25
31
16506
16648
16682
16627
94
104
110
132
142
172
176
180
190
235
16448
16470
16624
16523
38
58
128
192
204
238
240
308
16542
16469
16523
16547
16601
16
94
98
126
298
235
16426
16428
16454
16520
16644
16654
16660
16672
28
124
156
57
73
137
187
217
249
16400
16408
16412
16426
16438
16454
16480
16508
16526
16534
16540
16576
16590
16604
16612
16624
16628
16660
16680
116
144
186
304
51
16656
16505
16533
16697
215
243
16468
16470
16500
16682
10
100
73
223
16564
16628
16696
16499
310
235
16596
16435
16537
16595
238
157
173
265
16482
16500
16508
16580
16676
16425
16633
35
141
153
265
16400
16500
16540
16544
16564
16584
16602
16604
16614
16650
16666
16668
16678
56
288
294
3
16454
16532
16521
16681
187
193
275
16416
16500
16661
79
243
16478
16496
16508
16620
16640
16672
16688
16595
16681
146
156
284
294
121
16500
16542
16505
16507
2
58
120
128
192
208
304
16492
16564
16668
16387
16537
35
45
65
279
309
16442
16642
16619
142
17
73
121
151
153
16405
16507
16537
16565
20
40
54
86
102
128
190
288
306
316
16533
16545
86
121
129
227
16421
16489
16577
16627
48
124
180
188
35
16481
16521
16579
16593
16693
156
121
159
16458
16586
16505
16527
40
44
50
70
72
104
112
122
124
154
162
172
174
176
186
210
218
222
230
238
240
272
276
292
302
16438
16508
16576
16654
16587
34
294
191
16390
16594
16638
16635
12
38
96
73
105
137
16400
16530
16409
16537
35
99
121
215
233
259
16441
16473
16505
16543
16617
118
130
180
222
217
267
16392
16400
16418
16486
16510
16550
16564
16672
16678
45
73
83
173
16654
16475
16697
48
164
202
281
16543
16665
121
145
217
313
16393
16427
16505
16517
16625
16645
236
3
175
16422
16482
16484
16500
16512
16548
16562
16606
16612
16411
70
178
244
294
41
43
16481
16517
16537
116
144
306
155
16430
16454
16500
16588
16594
16622
16646
16678
7
35
45
85
153
221
16390
16404
16454
16500
16648
16656
16702
51
127
16656
16483
116
142
160
198
214
240
278
11
16454
16500
16696
16385
16393
60
68
94
118
132
148
190
202
230
232
16590
16481
16535
16661
6
12
116
166
198
310
314
16498
16548
16588
16596
16616
16650
16601
156
308
35
16400
16410
16428
16432
16450
16456
16468
16484
16500
16502
16514
16524
16540
16582
16594
16624
16650
16678
70
102
192
208
288
89
16540
16433
16531
16627
99
319
16421
16435
16437
16679
90
152
73
211
16384
16540
16451
16475
16505
16569
62
116
156
164
192
242
302
316
75
16532
16564
16401
16425
16463
16617
16649
10
292
137
16422
16500
16586
16678
16425
38
308
25
121
249
16393
16425
16433
16557
16631
16691
9
41
73
93
153
173
265
16426
16399
16537
28
32
64
92
278
233
315
16476
16684
16617
16643
33
39
83
121
139
211
16602
16628
16650
16409
16433
16481
28
159
163
249
16457
16505
16547
16619
16649
16697
10
28
42
44
92
124
212
266
276
3
16524
16505
16529
16575
16681
58
116
31
259
16442
16602
16618
16441
16505
16633
4
28
50
104
170
192
16400
16460
16500
16622
16569
20
70
92
166
153
16426
16468
16500
16532
16588
16672
16521
94
77
153
281
16650
16447
16505
16537
16617
16655
33
151
235
16384
16390
16396
16476
16556
16576
16678
42
44
100
108
132
156
198
204
25
16480
16496
16500
16526
16548
16566
16580
16604
16624
16636
16650
16658
16670
16672
16692
16700
16593
151
309
16386
16544
16427
16537
154
233
16532
16499
16667
63
115
161
163
16588
16604
16505
16667
0
116
140
206
208
294
169
16412
16432
16454
16476
16478
16484
16502
16540
16558
16562
16576
16590
16606
16622
16624
16644
16654
16668
73
153
177
193
211
217
16390
16396
16454
16474
16502
16582
16636
16660
16692
268
131
243
265
16430
16427
16537
16587
76
116
156
218
284
35
73
16508
16566
16634
16585
23
105
177
181
201
241
16418
16422
16560
16606
16670
16674
16681
314
243
16480
16623
178
139
283
16452
16460
16646
16543
16633
51
97
243
307
16432
16484
16492
16494
16514
16516
16560
16574
16596
16598
16646
16678
16684
16688
16692
16694
7
19
193
16390
16410
16430
16454
16476
16486
16522
16524
16544
16554
16560
16572
16656
16672
16678
16690
28
58
70
76
86
116
120
190
192
240
258
262
268
274
314
16464
16478
16624
16587
16
91
16390
16564
16681
148
73
255
16650
16401
16515
16633
116
97
303
16542
16427
16525
16537
16541
16
96
272
284
249
283
16387
16461
16469
16537
16665
16691
73
75
173
283
49242
49268
49290
49350
49404
49327
32897
32899
32949
33021
49230
49205
49335
33024
32815
32829
49358
49333
32799
33071
49238
49278
49427
49469
32772
32812
32850
32858
32872
32882
33000
33016
33076
49165
49179
49211
49213
49357
32776
32778
32840
32968
33012
49166
49186
49234
49335
32946
33013
33061
49284
49354
49392
49165
49249
32792
49216
49308
49312
49408
32792
49156
49346
49445
49457
32782
33016
49163
49251
49259
49335
32829
49362
49183
49215
49467
33000
32965
49213
32904
32966
33044
32847
49212
49455
49469
32825
32993
33043
33053
33085
49242
49287
49319
49335
32840
32968
33000
33064
32927
49165
49181
49183
49199
49231
33039
33041
33079
33085
49323
49329
49341
49403
49409
32806
32852
33053
49167
49187
49193
49213
32781
32797
32837
32867
49157
49253
32840
32842
32930
32948
32980
33000
33012
33074
49287
49451
49455
32816
32862
33009
33075
33085
49460
49159
49197
32900
32769
32829
49224
49390
49183
32828
33021
33035
49165
49175
49215
49229
32773
32877
49323
49421
49453
49469
32792
32942
32952
33024
33036
33038
33052
49325
49453
49469
49471
32850
32906
33061
49264
49374
49335
32798
32846
32889
33085
49175
49187
49239
49307
32828
32791
32965
49176
49272
49352
49368
49400
49432
49464
32775
32791
32903
32951
49165
49213
49251
32791
32877
49166
49176
49198
49298
49300
49458
32850
32904
32954
32968
32986
33025
33073
49176
49165
32782
32837
32885
32997
49464
49329
32779
32781
32813
32815
32899
49258
49357
32789
32829
49258
49352
49384
49407
32790
32840
32936
32981
49314
49175
49351
32782
32809
33037
33085
49452
49287
49335
49367
33056
32799
49160
49176
49208
49224
49281
49377
32849
32859
49165
49211
33036
32855
32903
32981
33015
33079
49157
49203
49213
32952
32911
49446
49213
32811
32827
49165
49317
32792
32806
32824
32840
32876
32930
33082
49196
49351
49357
33000
33016
33042
33054
49173
49333
32798
33004
32839
32903
32951
49339
49469
32773
32943
49175
49213
32850
32874
32879
49288
49445
32917
32973
32979
33023
49214
49223
49349
49397
49445
32805
32965
32999
33013
33043
33045
49466
49181
49183
49327
32830
32893
32925
32997
49348
49396
49213
32846
32848
32898
33056
32775
49182
49403
49419
49437
32975
49176
49271
32910
32791
49371
49443
49455
49469
49471
32918
32861
49165
49245
49311
32791
32855
33047
33061
33079
49278
49344
49386
49175
32818
32836
32852
32858
32862
32898
32994
49468
49313
49333
32799
32843
32845
32909
49309
49353
49389
49437
49469
32773
32791
32861
49157
49201
49217
49281
33002
32791
49374
49239
49255
32773
32861
49244
49175
49349
49399
49415
32792
33025
49176
49245
32826
32994
32981
49166
49212
49455
49469
32974
32986
33050
33029
49377
49403
49407
49419
32827
32881
32885
32923
32981
49194
49408
49159
49175
32770
32792
32794
32806
32840
32860
32872
32904
32908
32910
32936
32940
32948
32956
32968
33060
33080
49159
49307
49377
49403
32776
32792
32840
32854
32906
32966
33002
33036
33048
49382
49213
32965
33061
33063
49256
49290
49446
49462
49329
32857
32929
32947
32987
33019
33027
33049
49384
49413
32797
32799
32939
49182
49246
49335
49367
49381
32840
32928
32934
32984
33048
32815
49154
49188
49192
49242
49252
49256
49272
49290
49304
49322
49438
33046
32893
49432
49419
32965
33007
33011
33035
49176
49217
32812
33071
33079
33085
49436
49470
49335
49391
32782
32814
32846
32894
32805
32887
32951
32967
33079
49246
49256
49288
49294
49300
49336
49346
49354
49450
49458
32923
33061
33085
49329
49339
49359
32813
32911
32925
32929
49154
49160
49176
49212
49274
49384
49444
32925
32951
32989
49322
49175
49335
32897
32965
32993
32995
33027
16398
16434
16487
16493
16519
16583
16617
16633
16679
16695
2
124
304
261
16402
16430
16474
16672
16571
24
128
170
174
244
246
16408
16640
16597
135
177
181
217
279
16384
16414
16474
16526
16572
16594
16638
16640
16694
96
260
314
16384
16432
16464
16496
16624
16391
16471
16527
16549
80
172
188
198
252
280
16407
16481
16521
16565
16581
16583
16651
16693
57
103
113
135
181
185
187
213
249
279
16560
16473
16479
16519
16549
16569
16639
264
270
21
85
171
16654
16423
16469
16519
16617
16629
16633
16677
16683
46
21
39
69
137
167
169
179
245
311
16584
16594
16642
206
139
197
289
16403
16487
16629
16639
16643
2
14
162
246
16670
16487
16565
16605
0
62
78
82
96
98
176
194
210
254
284
7
16416
16466
16626
16690
16393
16423
16471
120
136
107
16448
16435
16487
250
255
16570
16608
16569
2
36
104
108
103
16453
16465
16569
16599
16613
16615
16631
46
49
71
129
245
247
315
16402
16506
16569
224
7
23
87
121
135
199
205
231
249
255
16396
16456
16523
16645
206
262
16498
16556
16584
16565
2
142
103
167
245
277
16419
16499
16671
41
89
123
177
241
261
16464
16397
16499
16525
194
7
23
181
16386
16416
16434
16446
16476
16482
16492
16514
16530
16564
16578
16610
16626
16670
16688
16698
120
184
188
251
16606
16465
16551
16615
142
55
135
157
199
16386
16610
16654
16519
16521
16663
170
250
7
167
261
16384
16408
16556
16592
16656
16455
113
245
289
305
16440
16488
16492
16520
16536
16610
16612
16654
16656
16660
64
116
132
7
16408
24
197
16544
16620
16443
16501
16565
202
23
117
207
261
16479
16569
16623
56
82
104
192
260
280
300
310
16474
16506
16393
16521
48
127
16386
16474
16514
16642
16407
55
161
199
231
261
289
16494
16504
16536
16582
16678
7
47
199
245
317
16399
16407
16415
16541
16677
0
19
109
205
16386
16562
16566
16570
176
13
25
55
135
199
237
16472
16492
16670
16427
274
43
129
253
16384
16464
16560
16666
16563
48
96
176
194
234
119
16391
16557
16663
28
120
254
258
16398
16449
16519
16535
16617
7
27
29
43
91
105
119
139
187
245
313
315
16386
16562
16626
16656
16391
16423
16551
16583
16665
108
126
148
156
168
176
208
266
284
312
16560
16403
16527
16583
16615
16659
16697
94
102
104
110
118
126
136
272
310
16480
16391
16575
298
23
191
199
16474
16695
32
98
226
135
151
167
201
16434
16456
16482
16494
16516
16520
16526
16560
16576
16592
16672
16
24
86
92
128
176
238
256
284
16482
16518
16562
16610
16652
16662
16678
120
236
91
16448
16476
16504
16508
16520
16560
16562
16576
16584
16594
16610
16630
62
152
222
284
123
16398
16577
16593
16615
38
188
200
75
16430
16512
16548
16656
16487
64
160
51
131
163
16407
16527
16567
16575
16697
0
13
35
16558
16443
16489
16503
16515
16519
16583
138
171
16560
16656
16391
16607
16643
0
60
66
98
110
120
152
176
220
27
16400
16402
16416
16432
16476
16480
16504
16508
16576
16588
16590
16616
16628
16688
0
68
76
88
306
167
16606
16523
16547
80
7
127
181
16391
16425
16471
16511
16515
16617
256
83
303
16446
16391
16489
16497
16521
16561
16695
61
63
103
141
167
169
253
16584
16632
16668
56
112
156
172
277
16400
16452
16391
16519
16569
12
236
291
16384
16408
16416
16566
16664
18
30
46
98
110
226
268
290
7
16492
16522
16580
16616
16636
16664
16425
306
45
199
285
299
313
16398
16448
16456
14
140
242
256
71
16432
16441
16585
16601
16703
2
82
118
220
226
270
16654
16467
16473
16555
16629
2
306
169
237
16494
16529
16613
96
282
7
15
105
16489
16511
16519
16549
16551
16605
16703
2
23
137
215
269
16384
16406
16438
16508
16680
0
50
92
100
124
144
200
208
292
16386
16406
16408
16416
16418
16464
16466
16520
16592
16626
16652
0
2
18
24
60
82
108
114
144
218
286
16386
16450
16498
16642
16439
16519
16665
7
127
151
185
233
285
16510
16391
16441
16487
16513
16553
16569
16597
16617
16645
16679
3
7
159
245
261
291
16511
16535
16639
16693
16695
110
23
129
133
247
16400
16432
16440
16488
16622
16648
23
35
39
45
69
133
135
137
139
167
183
235
279
16391
16439
16487
16491
16497
16519
16535
16569
194
23
229
231
16530
16579
13
103
131
135
157
163
205
265
16386
16606
16654
16407
16489
16551
16649
2
18
57
135
16432
16458
16415
16563
0
50
66
82
122
168
172
200
226
250
258
268
16506
16549
14
54
62
64
108
110
120
136
140
176
188
194
16430
16662
16389
16629
16667
16
194
258
135
233
279
16478
16439
16487
16519
16551
16663
40
102
152
264
266
49338
49342
49422
49271
49379
49415
33084
32909
32917
49162
49178
49200
49230
49260
49262
49370
49388
49399
32778
32794
32810
32832
32860
32922
32956
32958
32970
32990
33022
33032
49196
49226
49228
49322
49420
49461
32769
32801
32841
32895
49356
49393
49423
32801
32831
33067
33075
49426
49215
32909
32929
33053
49201
49235
49245
49291
32870
49226
49322
49370
49177
49349
32794
32814
32874
32896
32940
32986
33006
32839
49357
49361
49391
49419
49425
32769
32833
32925
49182
49226
49219
32838
32884
32886
49198
49236
49326
49330
32788
32836
32870
32934
49178
49290
33070
32821
33011
33074
32835
32901
49377
49457
49459
32850
33003
33075
49410
49273
49385
32806
32820
33054
33074
33084
49154
49232
49157
49309
49339
49421
32798
32959
32993
33039
49373
49395
49419
49439
32820
32882
32884
32783
49254
49380
32770
32989
33009
33041
49174
49220
49430
49464
32839
32887
32959
33007
33041
49273
49293
49295
32945
33011
33025
49182
49361
49377
32828
32995
49358
49434
49219
32926
33042
32787
32965
49185
49243
32806
33007
49163
32982
32769
49157
49271
49329
49403
32875
33013
33023
33053
33057
33061
49190
49242
49322
49380
49438
32794
32826
33004
33061
49274
49278
49294
49338
49255
49287
32853
32955
32969
32975
33039
33055
49206
49254
49288
49382
32832
32876
33041
33075
49206
49273
49355
32982
32863
49252
49290
49392
32914
32785
32787
32801
49188
49454
49277
32804
32870
32982
49396
49155
49281
32820
32918
33050
33060
33074
49238
49266
49284
49322
49448
32819
32831
32921
49168
49391
49397
49401
49453
33004
33022
33050
33070
32819
49275
49391
49441
32803
32895
49350
49356
32931
49169
32806
32996
49322
49251
32977
32993
33025
49330
49173
49221
49245
49289
49447
32972
32799
33063
49178
49222
33078
32977
32993
49326
49448
49223
49283
49443
32790
32956
32966
32982
49190
49254
32795
32841
32851
32895
32901
49206
49254
32814
32882
32943
32957
49386
49390
49187
32822
33001
49183
49381
32833
32859
32865
49163
49251
49277
32998
32969
49249
49415
33042
32859
32907
49152
49196
49377
32961
33063
49180
49395
49425
32997
33007
33013
33041
33073
49257
49345
49363
49379
49395
49457
32995
33023
33053
49332
49356
49384
32963
32995
33023
33027
33041
49243
49277
49443
32911
32923
32951
32979
32989
32993
33009
33027
49220
49228
49324
49326
49380
49390
49468
32845
32977
33055
49386
49187
49205
33022
32801
32863
49322
49416
49409
32836
32870
33046
33058
49394
49185
49197
32948
32831
49188
49356
49379
33020
32803
32821
32835
49178
49244
49252
49332
49408
32774
32978
32986
33073
49180
49326
49207
49415
49443
32774
33075
49174
49188
49340
49350
49462
32836
32972
49258
49308
49370
49406
49459
32789
32843
32863
32907
49186
49247
32827
32829
32839
32867
32881
49217
49245
49269
49293
49331
32842
32920
32972
33070
32807
49215
49293
49403
49455
49459
32822
49404
49205
49253
49271
49397
49399
32936
32831
33071
49434
49470
49201
32945
33003
33019
33087
49231
49313
49377
32879
32891
32907
33011
49305
49383
49419
49425
49439
49447
49455
32820
32928
32958
32769
49185
49217
32789
32993
33027
33075
49245
49341
49395
32836
32845
49254
49257
32899
32997
49380
49183
33050
49464
49185
32785
49295
32870
32884
32891
49220
49264
49364
49446
32838
33050
49186
49206
49241
32853
32975
32977
33009
33075
16422
16482
16546
16590
16614
16702
16393
2
20
56
86
129
207
209
225
319
16392
16408
16524
16546
16618
16676
16680
57
201
16448
16452
16454
16686
16525
2
104
122
146
154
202
255
319
16490
16538
16401
16433
16455
4
8
20
36
100
116
120
136
150
164
182
226
264
296
207
289
16406
16422
16550
16644
16692
16603
16605
28
60
74
76
104
166
172
184
200
264
280
243
16450
16431
68
136
166
184
308
63
81
155
16504
16401
16499
16589
16593
40
60
106
193
289
305
16408
16399
16483
16515
16561
16699
14
42
282
310
312
113
16490
16534
16562
16648
16686
16609
178
240
65
16563
16575
16621
16643
16657
16703
30
76
146
232
296
16686
16477
16697
118
254
123
16408
16416
16420
16444
16468
16472
16474
16476
16490
16504
16520
16522
16530
16564
16600
16616
16632
16648
40
166
278
81
111
193
209
219
257
16422
16568
16515
16561
16703
60
70
296
319
16454
16508
16702
16401
16673
182
266
53
81
97
16408
16424
16440
16538
16568
16648
16449
16451
16481
88
90
98
126
184
216
282
294
17
16442
16524
16664
16401
16449
36
82
84
102
162
168
184
228
49
65
81
177
273
16434
16436
16474
16532
16586
16604
16666
16465
180
184
204
252
195
241
16502
16680
16495
16561
16577
16593
16623
16641
16703
120
15
81
129
187
193
287
289
16564
16568
16684
16405
16429
19
209
319
16418
16496
16688
16702
16555
16
164
292
249
16586
16690
16623
16673
40
56
1
49
65
81
161
209
239
241
16440
16401
16449
16577
16593
16629
16643
16657
68
98
184
252
268
193
16441
42
184
17
115
293
16692
16451
16593
24
62
204
208
264
290
17
16412
16490
16518
16530
16678
16686
16430
16603
2
258
65
177
289
16578
16449
16451
22
36
50
268
290
177
16424
16568
16545
16581
16593
16655
40
60
186
232
264
312
16504
16664
16465
16497
16561
16645
4
28
40
60
90
116
132
148
150
204
232
252
264
16550
16568
16611
16703
115
209
289
315
16451
16515
16593
16623
16679
16689
88
98
166
184
270
286
294
302
308
16642
16676
16617
26
272
209
16408
16385
16417
16483
16529
16593
16659
16703
4
24
62
86
113
237
16444
16486
16514
16516
16522
16542
16550
16554
16558
16570
16614
16616
16618
16634
16644
190
302
16386
16482
16568
16570
16604
16676
16694
16700
40
84
316
111
16458
16385
16455
16527
16657
60
81
209
16412
16492
16638
16529
48
286
57
16474
16439
32
40
84
220
318
289
16388
16420
16470
16526
16532
16624
16477
16489
60
97
209
16480
16528
16532
16550
16566
16580
16697
32
236
17
16504
16524
16568
16618
16385
16399
16417
41
93
16670
16441
17
67
219
16424
16444
16538
16562
16600
42
84
86
150
296
308
312
316
145
16460
16499
16593
22
36
68
126
132
146
164
182
317
16403
16593
16679
286
297
16676
16653
36
84
144
182
210
269
313
16456
16429
16433
16435
16525
16577
16589
16593
16609
22
60
186
1
19
81
16696
16433
16497
16499
16513
16593
16703
188
210
31
193
16570
16586
16629
6
34
80
194
238
286
16396
16514
16586
16616
16682
16593
56
84
94
260
296
209
16522
16536
16648
16399
16449
16465
16479
16609
16625
16689
262
294
308
33
97
129
141
209
239
273
16417
16433
16435
16479
16481
16483
16659
154
206
220
308
17
16670
16672
16397
57
16582
16598
16644
16539
16625
8
40
164
178
210
232
258
129
16444
16467
16513
16545
232
97
115
197
209
16570
16403
16559
16631
40
204
220
296
312
17
81
16420
16468
16401
16433
16523
16591
16593
16609
12
106
138
182
184
264
177
273
16434
16560
16594
16577
42
166
178
262
129
16403
16519
16657
150
180
258
260
315
16388
16542
16666
16593
14
286
16451
16575
16603
258
169
173
16394
16408
16686
16465
151
209
16568
16449
16525
16533
16545
16623
16673
19
67
193
255
16670
16603
270
123
16400
16630
16537
300
49
67
207
16440
16508
16510
16572
16588
16680
16465
146
228
286
310
318
249
16408
16568
16616
16515
16593
16703
232
252
19
95
193
16424
16444
16580
16612
16694
16431
16497
19
49
67
111
16401
16435
16499
16623
16699
60
88
228
284
16499
16593
28
36
40
56
128
97
16386
16448
16494
16560
16621
90
115
209
16440
16468
16472
16502
16524
16680
16481
108
286
17
113
16626
16403
16499
16593
168
17
65
115
239
273
16451
16455
60
202
234
65
16412
16456
16510
16530
16614
16618
16694
16700
40
70
72
116
122
132
136
146
148
154
194
202
222
236
242
250
262
266
276
280
282
298
306
308
314
49175
49243
32949
32997
33079
49279
49413
49451
32901
49247
49295
49433
32983
49333
32951
33047
49285
49399
32775
32795
32807
49177
49191
32999
33051
33067
49239
49307
32796
32892
32857
49177
49333
32855
32873
49191
32791
32855
33049
49168
49216
49248
49403
32811
32859
49162
49365
32845
32935
49191
49195
49383
32937
49162
49180
49212
49242
32825
49388
49193
32793
49232
49384
49392
49451
32971
49158
49184
49196
49200
49214
49244
49280
49360
49370
49376
32821
49157
49195
32784
32816
32822
32864
32868
33022
33032
33084
49433
32937
33035
49296
49295
32807
49325
49365
32831
32909
32949
49365
49381
33023
33049
49321
32880
32855
49159
32841
49271
49319
33041
33079
49289
49363
32816
32936
32944
32976
32859
49190
49218
49280
49325
32885
33053
49355
49383
32793
49162
49208
49216
49222
49232
49250
49312
49350
49388
49428
49438
49466
32960
32853
49175
49225
32855
49241
32981
33049
49433
32890
49175
32805
49305
32841
49174
49306
49316
49338
49350
49370
49201
49251
49263
49327
32857
49334
49450
49195
32780
32798
32832
32876
32912
33024
49208
49227
49327
49359
49451
33056
32841
32971
49168
49357
49439
32951
49195
49289
49305
33001
49219
49237
32864
32880
32882
32966
32988
33036
33048
49173
49383
32824
32848
32900
33016
33048
33055
49200
49248
49264
49312
49358
33056
33047
32841
32855
49252
49256
49282
49316
49295
49451
32889
33009
33073
49161
49215
49355
32855
49177
32887
49312
49205
49459
32905
49296
49241
49437
32803
49200
49167
49213
49405
33052
33045
49232
49264
49352
49376
49424
49440
49456
32960
32971
49320
49370
49195
33004
32949
33061
49220
49159
49255
32971
49175
49291
32923
49256
49312
49324
49326
49360
32796
32896
32912
32956
33060
33072
49466
49355
32860
32901
49191
49459
32793
49274
49426
49355
32853
33049
33055
49319
32971
49385
49415
32885
33057
49365
49451
33049
33059
49276
49433
32840
32850
32861
32877
32941
49337
32844
32884
32841
49200
49413
32844
33011
33023
49328
49205
32871
33086
32967
33035
49206
49187
49347
49395
32786
32814
32854
32958
33000
33070
33082
49239
49335
32980
32853
32923
49366
49167
49231
49277
49407
49423
33013
49177
49433
32809
32855
33067
49177
32809
49216
49256
49356
49404
49438
32828
32864
32884
32892
32896
32912
32956
32962
32972
32990
33042
49177
32832
32908
32928
32954
32960
32994
33026
33036
33060
49445
32793
49274
49225
32784
32864
49335
32775
32831
16498
16463
16549
56
110
128
208
16486
16662
16557
16559
16589
16617
16639
26
15
55
145
16418
16634
16401
16413
184
314
13
49
157
241
16392
16536
16600
16583
6
24
212
33
147
285
16394
16436
16528
38
214
230
113
16466
16548
16628
16676
16413
16577
16609
16641
296
221
229
16418
16420
16578
16679
174
176
262
13
16386
16404
16507
16589
128
304
157
16386
16594
16678
102
79
213
16385
16397
16401
16411
16417
16445
16447
16459
16527
16531
16541
16673
16675
56
106
240
246
290
16634
16680
16693
42
242
113
221
16418
16642
16674
16692
16511
0
16562
16511
16565
146
37
63
77
95
157
207
255
16459
16535
16587
156
304
16580
16397
16591
16655
16659
0
158
286
16616
16397
16409
16625
16657
16685
196
147
163
179
251
16410
16468
16566
16509
13
75
97
157
199
221
319
16420
16548
16600
16626
16690
16655
0
248
306
16386
16410
16498
16660
16665
16703
6
100
182
11
83
187
205
221
237
269
16496
16397
16475
16571
58
146
277
16512
16698
16511
16
26
34
16384
16426
16496
16560
16646
24
38
72
130
148
178
292
109
16582
16509
16527
16537
16601
16655
16671
56
258
306
289
16438
16472
16512
16644
16415
56
63
77
111
145
207
253
273
287
315
16440
16459
16473
16541
152
95
121
16424
16423
16541
86
100
120
136
162
168
196
216
298
91
16384
16532
16562
16459
32
176
224
16545
16565
208
221
16526
16564
22
40
230
260
306
314
16676
16397
16491
16541
16563
296
15
107
111
191
217
239
271
289
16486
16562
16666
16397
16491
162
264
15
89
175
183
311
16433
16459
16547
16611
16693
80
96
208
317
16395
16413
16419
16443
16459
16483
16531
16539
16685
15
201
283
315
16384
16630
16473
196
240
306
125
16386
16562
16413
16465
208
212
224
260
280
304
16408
16413
16529
16639
16651
0
68
31
16407
16429
98
53
231
16596
16491
16531
16541
16673
290
65
159
205
16431
16493
16527
16535
16545
16663
72
29
287
16666
16637
16669
16673
63
95
181
311
16400
16480
16626
16642
238
16642
16615
34
84
164
168
208
216
239
16386
16394
16418
16466
16546
16642
16690
106
296
16415
16425
16447
16597
34
232
49
157
271
16422
16454
16520
16546
16572
16576
58
120
258
303
16400
16461
16499
34
84
130
168
303
16546
16578
16660
16511
16609
16621
16633
54
240
163
16486
16688
16399
16413
16431
16479
16591
52
194
278
63
157
161
269
281
16420
16498
16562
16543
16561
16577
52
136
155
16384
16496
16592
16675
312
53
16413
16427
16485
16511
16535
16701
6
8
128
208
276
286
16482
16502
16562
16594
16598
16632
16660
16688
36
148
244
61
129
155
223
235
255
16488
16616
16591
16663
16
144
179
16562
16682
16399
16413
16
86
248
16646
16463
16537
16543
16673
102
262
310
27
43
131
16386
16616
16672
16623
0
152
288
16418
16642
16405
16541
16655
4
52
64
104
164
208
244
16390
16582
16642
16493
16541
16555
22
296
127
157
173
175
269
285
289
16402
16498
16611
16647
48
58
72
74
308
319
16388
16498
16594
16642
16674
16539
16641
6
54
132
11
29
31
63
129
175
217
273
16384
16448
34
216
244
314
16629
54
230
29
63
155
159
305
16422
16470
16532
16539
16701
1
13
29
155
171
203
221
227
237
289
301
305
16534
16459
16463
16525
16669
16673
56
39
16420
16482
16486
16385
16399
16497
16591
16655
0
121
123
189
235
253
267
283
301
16420
16440
16640
16660
16688
70
240
290
298
16404
16408
16676
16413
16417
16521
96
29
16402
16417
16543
16571
16575
16591
16615
0
192
93
227
16480
16572
0
228
272
16448
16670
16692
64
21
16420
16662
38
90
128
188
282
16584
16415
16527
16549
290
15
77
167
16482
16532
16419
170
216
302
157
16512
16676
16688
120
174
189
16384
16418
16436
16690
2
16
52
49164
49238
49436
32940
32990
49452
49193
49197
32974
49321
49367
49385
32980
32871
33047
49434
32934
33026
32817
32821
49172
49270
49219
49341
49379
49387
49435
49465
33026
32777
32835
49159
49305
32771
32953
49160
49295
49409
49415
49465
49471
32782
32844
49452
49189
32786
32927
33005
33059
33081
49185
49197
49267
49297
49373
49391
49431
32876
32970
49240
49366
49421
49429
49445
32814
32837
49428
49161
49243
49255
32884
32940
33075
49388
49436
49189
32929
32999
33015
49224
49268
49332
49352
49364
49366
49414
49432
49169
49215
49393
49421
49437
49453
32901
32997
49171
49369
49401
32780
33062
49436
49185
32902
32803
32899
32963
33073
49162
49242
49278
49336
49249
32876
32970
32988
32849
49198
33062
32791
32807
49228
49338
32778
32938
32970
33018
33052
49172
49284
49155
32787
32789
32809
32895
32973
49165
49243
49459
49461
49465
49467
32916
32801
32825
33005
49198
49191
32808
32985
33019
33047
33081
49444
49155
49249
32828
32897
49356
49452
33022
49242
49276
49322
49350
32876
33022
33013
49456
49462
49171
49243
32770
32806
32810
32866
32986
33085
49198
49383
32998
33018
32805
49212
49411
49427
49457
32998
33058
32769
32813
32815
32833
32959
49260
49337
33014
32777
32829
49301
49351
49385
49397
32806
32879
32957
32977
33003
33021
33037
33061
49260
49372
32854
32990
32994
49305
49311
49337
49383
32773
32839
32855
32873
49284
49205
32790
32957
32975
33021
33053
33063
33071
33081
33083
49322
49356
49378
32985
32999
49180
49292
49342
33068
32985
49424
49161
49243
32828
33067
49198
49342
32876
33000
32977
49204
49232
49346
49389
49413
49457
32988
33018
33044
32819
49172
49222
49341
49415
32871
32883
32951
32989
32999
49424
49185
49201
49237
33062
32825
32835
32849
49172
49335
32790
33029
33047
49155
49161
49173
49209
33034
32771
32781
32819
32847
32879
49412
49458
49155
49197
32814
32858
49155
49203
49205
49299
49317
49359
32903
32967
49372
49452
32894
33050
49256
49270
49300
49261
49327
49339
49389
49437
49467
32988
49296
49312
49390
49444
49177
33064
32979
49276
49452
33040
32873
49315
49383
49397
32951
32969
33017
49267
49331
49341
49383
49399
32974
32921
49207
49341
49401
49407
49413
49417
32780
33006
49354
49211
32883
32929
32951
49452
49409
32771
32773
33037
49214
32890
32924
49374
32958
33082
49289
49383
49459
32832
33029
49255
49289
32919
33081
49399
49437
32856
32879
33031
33049
49239
49415
49433
32892
33052
49172
49300
49377
49403
49457
33022
32905
49228
49356
32850
33001
49310
49354
32828
33052
33068
49378
49446
49159
32782
33007
49239
49305
49401
33068
32837
49212
49276
49350
32780
32931
33077
49155
49173
49175
32850
33002
33073
49301
49321
32876
32972
49186
49335
49337
32878
49354
49388
49426
32771
32787
32813
32841
49200
49431
32780
32830
49244
49361
49423
49471
32951
32969
32983
33001
49245
49259
49303
49377
49399
32871
32873
32929
49340
49388
49390
32900
32771
32819
49294
49354
32922
33067
49276
49356
49436
32999
33013
33039
49152
49170
49375
32804
32854
32959
33013
33083
16473
16493
16665
88
308
183
16472
16614
16680
16467
126
256
117
119
279
281
16444
16504
16419
16625
274
310
105
137
283
16440
16450
16452
16506
16616
16631
143
16538
16471
16483
70
264
19
35
277
16527
296
59
275
16466
16528
16489
16567
16697
56
104
158
208
218
250
252
264
272
308
247
16654
16437
16471
16485
16505
16585
16613
304
93
247
16470
16524
16568
16517
175
273
16414
16418
16618
16622
16537
94
23
217
297
307
16434
16488
16524
16538
16554
16610
16666
16645
6
132
142
190
242
16562
16557
66
132
308
153
157
16592
16407
16537
16617
16637
16649
88
232
284
307
16467
16667
0
174
206
244
247
16384
16496
16564
16702
294
241
257
16394
16462
16439
16473
16521
16585
80
126
290
19
16433
16515
16591
130
121
157
16424
16702
16453
16643
186
19
193
16444
16678
16401
112
260
25
153
313
16405
16433
16449
16451
16481
16691
248
35
49
117
133
16630
16401
16417
16419
16451
16517
16659
37
83
95
161
195
211
213
283
16536
16600
16433
16467
182
184
35
16496
16528
16690
16699
90
314
87
227
307
16440
16456
16496
16552
16586
16642
16652
16695
94
288
1
293
16550
40
136
83
16403
16417
16529
16625
44
56
170
220
234
250
264
69
16403
16469
26
238
83
195
16610
16569
79
83
277
16690
16473
16489
16699
51
67
143
307
16444
16566
16678
16517
290
55
283
16504
16506
16618
16624
16678
16581
90
128
152
228
308
16426
16442
16458
16496
16538
16648
16692
78
19
105
115
163
173
16692
16521
16589
8
40
92
138
238
242
294
318
16424
16451
16625
4
62
94
186
238
242
318
151
16464
16592
16626
16676
16425
16615
16699
88
83
16414
16458
16506
16526
16570
16622
16702
16567
16615
16663
82
98
313
317
16488
16512
16538
16556
16560
16616
16622
16642
16648
16650
16654
16666
16682
16686
16694
40
60
214
252
197
16404
16440
16458
16530
16568
16616
16620
16634
16636
16666
14
98
166
276
16432
16462
16512
16570
16620
16652
16547
198
161
16526
16530
16548
16569
16603
314
71
83
151
163
215
265
16440
16466
16478
16600
16606
16610
16618
16702
8
46
56
64
74
82
110
114
174
184
192
206
256
71
16455
16467
16551
16597
16601
16615
16631
16647
74
21
241
16467
16547
16599
16643
16645
16695
40
185
241
307
16392
16472
16598
16602
16664
16670
16688
68
80
194
224
238
308
16467
16469
16671
0
144
243
247
291
16558
16654
16453
16471
16535
16567
16569
16583
16663
16697
46
154
270
7
307
16488
16534
16481
308
281
313
16433
16451
16649
2
24
26
40
56
74
104
172
204
250
272
290
314
16390
16444
16456
16462
16478
16508
16526
16528
16538
16588
16618
16632
16634
16640
16666
16668
16674
238
318
151
153
217
275
16394
16446
16478
16544
16558
16608
16535
16599
16617
16679
168
145
163
16398
16450
16528
16443
16521
16585
16665
16699
23
65
227
245
16440
16444
16448
16458
16466
16472
16478
16528
16546
16560
16584
16608
16656
0
94
144
308
315
16656
16391
16419
16467
16519
16627
16643
144
137
283
16618
16471
16487
16521
16537
16615
30
114
144
226
89
265
299
16414
16446
16458
16474
16478
16526
16572
16586
16620
16652
16698
16533
40
56
68
154
226
238
5
16494
16542
16574
16597
16599
16633
16677
66
202
201
215
231
16554
16622
16593
16663
28
64
80
104
112
170
184
186
218
294
16446
16606
16473
16533
16577
16611
40
3
21
241
16517
16577
294
35
275
16616
16483
16499
16677
53
191
16418
16516
16654
16676
16589
56
76
82
152
158
168
206
231
16444
16494
16692
16581
230
239
16434
16626
16674
16409
16413
16441
40
140
193
197
16424
16444
16472
16510
16568
16606
16622
16403
54
83
177
16419
16513
16567
16569
8
24
40
44
74
76
128
172
216
234
236
250
256
268
284
296
16478
16670
16509
16585
19
147
167
173
16416
16438
16456
16492
16512
16554
16558
16574
16594
16602
4
56
88
114
254
16678
16579
19
43
199
215
229
16394
16467
16519
16535
16551
16691
68
76
154
308
215
16496
16622
16627
16643
16645
16663
16677
23
161
163
197
275
277
16401
16403
16467
16517
16641
0
16
56
74
82
88
112
168
184
204
206
266
16598
16467
198
200
67
211
16514
16461
16537
126
237
295
16568
16465
16597
74
39
89
101
277
279
16634
16573
16627
50
74
94
116
158
210
226
252
49334
49382
49161
32779
32781
32813
32903
49418
49201
49425
32799
32829
32961
49164
49168
49390
49193
32918
49172
49252
49276
49308
49314
49318
49324
49412
32801
49357
49359
49361
49389
32770
32814
32820
32830
32928
32841
49180
49311
33038
32783
32841
32843
49252
49462
49468
32783
49182
49222
49228
49324
49334
49344
49430
32854
32856
33037
49178
49210
49331
49383
49471
32822
32864
32982
33008
49170
49228
49230
49348
32820
32868
32884
33052
33062
49299
49423
32829
32975
49440
49179
49211
49291
32863
49180
49186
49280
49310
49338
49364
49372
49396
33039
33079
33087
49163
49199
49249
32829
32877
32951
33079
49306
49429
49463
49471
32783
49186
49210
49430
49450
32820
32967
32987
49154
49220
49320
49326
49364
49390
49438
33039
49268
49315
49457
32945
32991
49214
49246
49252
49155
49209
32868
32827
49245
49425
49457
33003
33039
33041
33073
33075
49266
49251
49461
32816
32844
32924
32971
49156
49176
49204
49334
32792
32868
32994
33028
49308
49195
49291
49301
49371
32863
49188
49210
49236
49382
33080
33087
49186
49262
49318
49334
49338
49396
49468
32800
32824
32868
32998
49183
49199
32975
32985
33067
49183
32860
33037
33087
49230
49250
49334
32886
32993
32995
49198
49286
49379
49387
32788
32804
33067
49152
49200
49232
49452
49189
49227
32770
32856
32886
33028
49458
49185
32792
32840
33037
49452
49157
49435
32942
33038
33048
33060
49247
32788
32877
32991
49428
32987
32991
33005
33053
49470
49167
32772
32838
32852
32868
32980
49183
49421
32768
32784
32828
33052
32777
49186
49314
49428
49297
32952
32831
49297
49309
49343
32934
32795
49458
49201
32822
32848
32860
32862
32892
32972
32841
49167
32991
33059
49375
49405
33028
49388
49444
49211
32926
33070
32831
49372
49410
49401
49447
33074
32795
32859
32869
49155
49167
49249
49271
32913
33005
33037
49174
49405
49461
32839
32881
33057
49202
49220
49318
49334
49430
49446
32961
33037
33073
49215
49229
32970
32783
49210
49238
49290
49298
49334
49410
49454
32802
32809
33035
33071
49167
49211
49297
49361
49451
33034
32783
49198
49236
49270
49382
49406
32991
49279
32826
32922
33034
32835
33041
49359
49363
32886
33074
49375
32779
32845
49204
49252
49322
49330
49338
49362
32775
32795
32807
32939
32987
49348
49199
49465
32834
32991
49303
49339
49371
49399
49407
49435
32784
32798
32795
32837
32841
32871
33033
49282
49179
49431
32768
32780
32816
32944
32966
32982
33028
33040
49172
49327
32768
32772
32778
32846
32848
32884
32928
33040
49214
49330
49157
49191
49205
49243
32779
32873
32907
33061
49270
49247
32773
32799
49238
49421
32833
32939
32941
49360
49424
49227
49291
32927
32975
49178
49311
32795
32829
33081
49167
49213
49235
32943
32955
49262
49211
49371
32964
32833
49172
49214
49228
49430
49193
32946
32793
32821
32907
49213
49313
49357
32770
32802
32836
32852
32882
32908
32922
32938
49435
32975
33083
49213
49229
49287
49335
32884
33037
49391
49421
49425
33037
49422
49231
32880
33038
32773
32795
32841
32953
49248
49372
49179
49221
49291
49303
49323
32783
32831
49247
32814
32860
32868
32982
33014
33028
33060
49174
49188
33068
32837
32885
33013
33065
49458
49389
32987
32991
16560
16652
16477
16487
16595
16597
157
209
297
301
16387
16429
16583
16685
16699
20
138
228
310
135
16564
16611
16697
22
118
157
235
16406
16477
16565
76
252
294
61
133
16684
16698
16509
16679
220
272
7
205
16476
16508
16661
16675
16685
208
272
135
157
183
16406
16408
16492
16494
16520
16654
16682
16595
316
33
301
315
16577
16633
99
125
187
221
303
313
317
16483
16557
16563
16579
16621
22
13
39
151
16646
16519
16553
16589
11
45
69
253
16406
16600
16541
208
272
87
165
199
245
301
16400
16650
16652
16621
16685
48
106
176
266
268
39
85
195
277
16390
16456
16562
16531
16581
16685
198
3
16457
16541
230
262
13
221
16456
16494
16568
16541
16565
16619
260
1
61
83
115
283
16390
16486
16660
3
13
45
87
119
135
163
16574
16612
16595
16621
6
10
16
299
16494
16429
16455
16523
16563
16611
16685
204
125
209
16532
16455
16525
16551
16683
258
301
16692
16581
16685
58
110
134
154
204
230
274
71
16424
16446
16488
16558
16638
16664
16678
16686
16385
16453
16467
16541
16563
16605
142
23
93
125
179
221
16660
16509
55
16509
16541
16583
284
107
169
16470
16684
16563
16611
16661
148
198
35
301
16502
16637
237
16490
16637
16699
152
216
93
135
301
16429
16619
16643
9
81
145
16417
24
64
110
316
301
16390
16470
16628
16660
16677
58
164
214
292
71
16532
16580
16385
16513
16577
16625
16
106
216
5
45
87
16646
16509
4
258
157
313
16412
16532
16630
16696
16700
16563
4
110
45
113
16396
16608
16626
16634
16640
16429
16581
63
16541
16577
16589
16619
228
262
301
16532
16590
16702
16433
16481
16513
16593
16685
268
272
316
67
103
16652
16617
12
302
21
157
205
16610
16611
134
194
198
119
16662
16423
16429
308
131
157
301
317
16509
16525
16667
22
276
21
16438
16584
16598
16531
16685
172
290
294
16429
16541
16571
16619
110
172
302
312
69
147
301
16477
16685
122
140
220
21
109
179
16432
16490
16602
16620
16541
176
250
310
16406
16429
148
49
117
235
317
16532
16540
16589
24
206
157
187
251
16515
16539
16619
16685
4
195
301
16398
16424
16458
16504
16590
16646
16650
16660
16397
60
45
16436
16580
16689
132
35
205
16524
16636
49
93
97
157
213
235
241
16418
16616
16517
16563
76
13
16488
16540
16646
16685
232
260
125
157
195
251
16678
16696
16429
86
90
232
300
235
261
16450
16505
16519
16689
50
134
166
16510
16445
16685
4
286
308
16464
16496
16674
16435
16487
81
117
157
299
16428
16486
16502
16532
16580
16499
98
13
147
16392
16614
16668
16405
16455
16509
16597
16647
230
318
9
299
301
16393
16685
24
126
172
174
216
300
21
16532
16397
16467
16625
16637
16685
184
157
173
299
311
16468
16532
16509
16667
16689
313
16630
16642
16646
16700
16503
13
23
55
83
131
293
301
16612
16433
16545
16577
16595
16619
172
316
293
297
301
16614
16700
16429
16695
294
301
16442
16478
16403
16477
16541
16613
148
19
87
157
179
16660
16689
318
69
211
235
16566
16455
16519
16563
16611
58
73
113
157
16639
148
235
299
16536
16628
16577
16621
16683
157
295
16612
16646
16385
16413
262
9
301
16494
16670
16441
16587
164
61
121
199
16470
16702
16477
16541
16577
16589
108
196
69
83
157
301
16406
16456
16516
16541
16595
8
26
58
64
122
124
148
192
224
250
280
286
298
306
312
314
316
135
16532
16541
16589
16627
16637
196
129
267
315
16494
16582
16545
16577
125
141
147
199
205
16390
16422
16421
268
288
7
83
119
149
151
179
197
49272
49439
32967
33019
49294
49209
32927
32959
49289
32961
49154
49380
49442
32809
49162
49334
49364
49432
32836
32918
32990
49199
32836
32980
33024
49292
49434
49219
49233
33065
49338
49354
49470
49297
49399
32953
49291
49421
32811
49272
49322
49353
32959
49193
32896
32912
32992
32827
49154
49166
49250
49262
49358
49469
32824
32980
32986
49211
49259
32810
32826
32926
32974
32855
32871
32969
49289
32827
32907
49215
32982
32915
49178
49354
49169
49253
32975
49199
32863
49411
49417
33056
32809
32951
49267
49421
49431
32802
32856
32890
32928
32990
32992
32839
32869
33045
49375
32870
32912
33012
33072
32923
32959
49182
49224
49272
49290
49322
49340
49356
49372
49374
49450
49452
49239
49255
49317
49319
49383
33024
32779
32989
49241
49413
32990
32811
32923
49291
32991
49159
49209
49319
32838
32966
33032
32781
49337
32783
49374
49470
49193
32780
32870
33000
32775
49289
32770
32778
32860
32916
32928
32960
32976
33024
32903
49206
49286
49364
49460
32776
33014
32995
33087
49375
32874
33065
49295
32786
32953
49162
49196
49198
49242
49278
49324
49358
49370
49374
49386
49438
49466
49301
49319
49381
32776
32974
33018
32801
32881
49195
32890
33064
33059
49312
49339
32768
32836
32996
49196
49322
49425
32782
32810
32906
32865
33015
49375
32928
32811
49174
49446
49169
32775
32857
49302
49195
33045
33057
49338
49347
49417
32808
32812
32872
32874
32876
32878
32890
32892
32910
32942
32968
32972
33000
33016
33038
33066
33072
32917
49366
49311
32804
32824
32918
49314
49342
49383
32872
32934
32963
33053
49335
49377
49443
32778
32937
49199
32870
32880
49359
32934
33016
49209
32905
49204
49254
49364
32934
32984
49166
49292
49342
49419
32839
32945
33063
49211
32825
32935
49241
32852
32870
33006
33042
49220
49254
49266
49288
49298
49368
49374
49376
49400
49448
32971
49230
49175
49189
49249
49251
49317
49353
49427
49433
32959
49240
49290
49366
49441
32827
49311
49341
32815
49180
49423
32831
49365
49373
49421
49443
32885
32905
49391
32904
32928
32875
49241
32848
32852
32912
32948
49450
49267
49449
32791
32837
32947
33065
49200
49449
33055
49316
32794
32836
32854
32978
33066
49209
32818
32834
49259
49261
49339
49355
49387
32874
32954
32775
33049
49242
49421
49471
32798
32828
32862
32874
32919
49186
49220
49400
49456
32888
32827
49288
49281
32872
32890
32952
32993
33059
49218
49406
49211
32809
49364
49177
32809
49391
49423
32782
32977
49420
49159
49447
32847
49164
49353
32815
33009
49389
49433
49459
32906
32871
33079
49178
49177
32818
32953
49337
32789
33047
33059
49220
49438
49375
32768
32880
32884
32932
33000
33028
