010100001100010010001001001001001001001001001001001001001001001001001001100100001001010100010010010001001001010100100010001001100100100001001001
001001100001001001001001001001001001010100100010010010001001001001001001100001010100010010100100100001001001001100010001001001010010010001001001
100010100100001001100100100100100100010010010010010010001001001001001001010010010100001001001001001100100100001001001010010001001001001100100100
010100010100001001010010010001001001001001001001001001001001001001001001100100010010100001100100100010010010010100010010010010010010010001001001
001001010100001100001001001001001001010010100010010010001001001010010010100001001100001010100100100001001001001001001010010010010010010001001001
001010010001010010001001001001001001001001001001001001001001001001001001010010100010100100001001001100100100100010100010010010100100100010010010
001001100001010010100100100010010010100100100100100010010010010010010010100001100010100010010010001001001001010010010100001001001001001100100100
010010010010010010001001001001001001001001001001001001010010010010010010100001010010100100010010010010010010100100001100100100010010010010010010
100100001100010100001001001100100100100100100100010100010010010010010010001100001001010010010010010100100100010001100010001001001001001001001001
010001100010010010001001001010010010001001001001001001001001001001001001010001100010001100001001001010010010100100100100100001100100100100100100
100010100100001100001001001010010010100100100100010100010010010010010010010001010001010100001001001001001001010001010010001001010010001001001001
010010010001010010010010010010010010001001001001001001001001001001001001100010010100010010010010010010010010010001010100010001010010010010010010
100001010010001001001001001001001001010001010010010010100100100100100100010001010010001001001001001010010010001010100001100100010010010001001001
010100010001100001010010010001001001010010010010010010100100100100100100001100001010100001010010010010010010001100010001100100010010010010010010
010010010001010001010010010010010010010010010010010010100100100100100100010100010010010001010010010010010010001100010001010100100100100001001001
001001001010010100100100100100100100010010010010001001100100100100100100100001001010100100010010010010010010001010100001010010010010010001001001
001001001001010010010010010010010010010100010010010100001001001001001001100001001100100001100100100001001001010010010001001001001001001100100100
100010010100010010100100100100100100001001001001001001001001001001001001010100001001001100100100100010010010100100010100100010100100100100100100
100001100100010010010010010001001001100010100100010100010010010010010010100001100010010100100100010001001001001001100010001010001001001010010010
010100010010100001100100100001001001010010001010010010100100100100100100001010100010100001010010010010010010001100100001100100010010010010010010
010010010001010010100100100001001001001001001001001001001001001001001001010010100100100100001001001010010010100001100100010010100100100001001001
010010001100100001100100100001001001001001001001001010010010010010010010001100010001100001100100100010010010001100010001100100010010010100100100
010010010001001100010010010100100100010001010010010001100100100100100100100001010010001100100100100010010010001010010001100010010010010010010010
001100010001010100100100100100100100010010010010010010100100100100100100010010001001100100010010010001001001001100100001100100010010010010010010
010010001010100010100100100100100100001001001001001001001001001001001001001100001001100010010010010100100100001100100010010001100100010010010010
100010001001100010100100100100100100001001001001001001001001001001001001001010010010010010100100100100100100001001100010010001010010010001001001
100100100010100001001001001010010010010010010010010100001001001001001001001100010001010100001001001100100100010001001010001010001001001010010010
100001100100100001010010010010010010100100010100100100100100100100100100010001010001100001001001001001001001010010001010010010100100100001001001
001001001001001001100100100001001001100100100100100100100100100100100100100001010100010001100100100001001001100100001100010010001001001100100100
100100010001100001100100100100100100010010001010010010100100100100100100001100001010010001100100100100100100001100100001010100010010010100100100
010010010010010010100100100100100100001001001001001001010010010010010010100100100010001100100100100010010010100100100100100100100100100001001001
010100001010001100010010010010010010010010010010010010100100100100100100010100010010010100010010010010010010001100100001100100010010010001001001
010010001010100010010010010100100100001001001001001001010010010010010010100010001010001001010010010010010010001010100001100100010010010100100100
001001001001001100001001001001001001100100010100100100100100100100100100100001001010001010001001001001001001100100001100010001100100100001001001
010010100001100001100100100001001001010001010001010001010010010010010010001010100001100001010010010010010010001010100001100100100100100001001001
100010010010010010010010010100100100001001001001001001001001001001001001010010010001001010100100100010010010010100001100100001100100100100100100
010001100010010010001001001010010010001010001001001001001001001001001001010001100001010010001001001010010010001100100010001001100100100010010010
100001100010001001100100100100100100100100100100100100100100100100100100010001100100010100010010010010010010100100010100010100001001001010010010
001001001001001100010010010010010010010010010010100010001001001001001001010010001100001010100100100100100100010010001001010001010010010001001001
010001001001100100010010010001001001010100010010010010001001001001001001010001010001010010010010010001001001001100001010001001001001001010010010
001001010100001100100100100010010010010010010010010100100100100100100100010001100001010001010010010010010010001100100001100100010010010001001001
001001001010001100010010010100100100010010010010010010001001001001001001100010001010001001001001001100100100010001001010001001100100100001001001
001010010010010100001001001001001001001001001001001001001001001001001001100010001100010100001001001001001001001010100001001100100100100100100100
001100100010001100001001001010010010010010100100010100010010010010010010001010100001010100010010010001001001001001001010001100001001001010010010
010010010001010010010010010010010010001001001001001001010010010010010010010001001100100001010010010010010010100100100100010010100100100001001001
100001010010001100010010010100100100001001001001001001001001001001001001001100010100001100010010010010010010010010001010100100010010010010010010
010001001010001010001001001001001001001001001001001001010010010010010010100001001010001001010010010010010010001100100001100100010010010001001001
100100001100001001001001001010010010100100100100100100100100100100100100010010010001100001001001001100100100100010001100100001100100100001001001
100100001010010001100100100100100100010010001010001010100100100100100100010100001010010001100100100100100100001100010001010100010010010001001001
100100100001100100100100100100100100100100100100100100010010010010010010001010010001100100010010010100100100010001001010001100001001001001001010
010100100001100100010010010001001001001001001001001001001001001001001001100100100010100010100100100001001001010001010010001001001001001001001001
010001010010001001100100100100100100010010001010010010100100100100100100010100100010001100100100100010010010001100100001100100100100100010010010
100010001010001001100100100100100100100010010010100010010010010010010010100001010010010010001001001100100100010001001001001001001001001100100100
010010010010010100010010010001001001001001001001001001010010010010010010010100001010100100010010010001001001100100100100010100100100100100100100
100100010100100100100100100100100100001010001001001001010010010010010010010100100001100100100100100100100100001100010001100010100100100010010010
100010001001100001010010010100100100010010010010010010001001001001001001001001001010100001001001001100100100001001001010001001001001001010010010
100001100100100100001001001010010010100100100100100100010010010010010010001001100001010100001001001100100100010100010010001010001001001100100100
010001100010010100100100100100100100100100010100010010010010010010010010100010100010010100001001001100100100001010001001001010010010010100100100
010100001001100100100100100100100100001001001001001001010010010010010010100100001100010010100100100100100100001010010001010001010010010010010010
001010001100001001100100100100100100010010010010010100001001001001001001100010010100001001001001001100100100001001001010001100001001001010100100
100010010010100001001001001001001001100100100100100100100100100100100100100001010010100001001001001100100100100010001100010001010010010100100100
010001001100010001010010010100100100001001010001001010010010010010010010010010100001010010010010010100100100001100100001100100010010010010010010
010100010010010001001001001010010010001001001001001001001001001001001001010100100010001001001001001010010010010001100001100100010010010100100100
001001100100100100001001001010010010100100100100100100100100100100100100001001001001100001001001001100100100100001010100010001001001001100100100
010010100100100100010010010010010010100100010100100100010010010010010010010100010001010100001001001001001001001100001010001010001001001001001001
100100010010100001010010010001001001001001001001001001100100100100100100010100010010100001010010010010010010100100010100100100100100100010010010
001010100100001100001001001001001001010010100010010010001001001001001001100010100100010100100100100001001001010001010001001001001001001010010010
010100100010100001001001001010010010010010010010010100001001001001001001001010100001100001100100100001001001001001001001010100100100100001001001
010010010001100010100100100100100100001001001001001001001001001001001001001010001010100010100100100100100100010001010010100100010010010001001001
100100100100010100010010010010010010100100100100100100100100100100100100001100010001100001001001001100100100100100001100010100001001001100100100
010001001001001001001001001001001001010010100010010010001001001010010010100100001100010100100100100001001001001010010001010100001001001100100100
001010010100001100001001001010010010001001001001010001010010010010010010100100100001001100001001001010010010001100010001100010010010010010010010
010100100010100100100100100001001001100100010100100100010010010010010010001100100010010001100100100001001001100001010010010001001001001100100100
010100010100100100100100100100100100010010010010010010001001001001001001001010010001010100001001001100100100010001001010001100001001001100100100
001100001100100100001001001010010010010010100010100010001001001001001001001010001001100100010010010100100010010001010010100010001001001010010010
001001001010100001100100100100100100100100100100100100100100100100100100100001001100100001100100100001001001100100010100010100001001001100100100
001001001010001001010010010001001001100100100100100100100100100100100100100001001100010010100100100001001001100010100010001010001001001010010010
100010010010010010100100100010010010001001001001001001010010010010010010010100001100100001001001001100100100100100100100100100100100100100100100
001001100001001100100100100100100100100100100100100100010010010010010010100100100100001100100100100001001001100001001010010100010010001100100100
001010010010100010001001001001001001001001001001001001100100100010010100010010010010100001001001001100100100100010010100100100100100100010010010
010010100100100010010010010010010010010010010010010010001001001001001001001001100001100010001001001100100100001010100010010001001001001100100100
010100010100100100100100100100100100010010100010010100001001001001001001001100100001010100001001001100100100001001010001001100100100100100100100
001001010100001001010010010001001001100100100100100100100100100100100100100001100010001001001001001100100100100001010100001100010010010100100100
100001001010001100010010010010010010010010010010010010100100100100100100010001001100010100010010010010010010001100100001100100010010010010010010
100001100001001001100100100010010010100100100100100100100100100100100100010001100100001010100100100001001001100010010100010100100100100001001001
010100001010010001001001001001001001010010010010001010100100100100100100001100100100010001010010010010010010001100100001010010100100100001001001
010010010001010010100100100001001001001001001001001001010010010010010010100010010010010100010010010010010010100100100100100100010010010010010010
001010001100100001100100100010010010010010010010010100001001001001001001001010010001010001001001001100100100010010001010001001001001001100100100
001100100001001001001001001010010010001001001001001001001001001001001001010100100100100010001001001010010010001010010010010010100100100010010010
100010001100001001100100100100100100100100100100100100100100100100100100001010001001001010100100100100100100100010001100010010001001001010010010
100100001010100100001001001010010010100010100010010010010010010010010010001010010001100100001001001100100100010001001010001100001001001100100100
001001100100010100001001001001001001001010010010010001010010010010010010010100100001100100001001001001001001001100100001100010010010010100100100
100100010010010010001001001001001001010010010010001001100100100100100100001100001010001010010010001010010010001100010001100010010010010010010010
010100001010001100010010010010010010010010010010010100010010010001001001100010010100001100100100100010010010010001001001001001010010010001001001
010001001010010001010010010001001001100100100100100100100100100100100100100100100100010001100100100001001001010010001010010100010010010100100100
010100001001001100010010010001001001100100010100100100100100100100100100100100001100001100100100100001001001100010001100100100001001001100100100
100001100100100001001001001010010010010010100010010010001001001001001001010001100001100001001001001010001010001010001010001100010010100001001001
100100100100100010100100100100100100100100010100100010010010010010010010001100010001010001001001001100100100100010001010001001001001001010010010
010010010010010010010010010010010010001001001001001001001001001001001001001010010001001010010010010010010010010010001100100001100100100010010010
001010001100001001010010010100100100100100100100010100100100100100100100100010010001010001001001001100100100100010100010001100010010010100100100
010010010001010010001001001001001001001001001001001001001001001001001001010010001100010001001001001100100100010010100100001001100100100100100100
010010100001001010010010010100100100001001001001001001001001001001001001100001100010001100010010010010010010010100100010001100100100100001001001
001001001001001001100100100100100100100100100100100100100100100100100100100001010100010001100100100001001001100010001100001010001001001100100100
010010100010010010001001001001001001001001001001001001010010010010010010010100100010001001001001001010010010100100100100001100100100100010010010
001001100001001001100100100010010010100100100100100100100100100100100100100100100100001001100100100001001001100001100100010010001001001100100100
100010001100100001010010010001001001100100010100100010100100100100100100001010001001100010001001001001001001010001001010001001100100100001001001
001001001100001001010010010010010100100100100100100010100100100100100100100001001010001001001001001010010010100010010100100001100100100001001001
100100001100001100001001001010010010100100100100100010010010010010010010010100001010001010100100100001001001010001010010010001001001001010010010
001010010001010010001001001010010010001001001001001001010010010010010010100100001010001001001001001010010010100100100100100100100100100001001001
001100001010100100010010010100100100010010010010010010001001001001001001010100010001010010001001001010010010001001001010001001001001001001001001
100100100100100100001001001100100100100100100100100100100100100100100100001010100001100010010010010100100100100100010100001001001001001010010010
010001001001001010010010010001001001010010010010100010010010010010010010010001001100010010100100100001001001001001010010001001010010010010010010
010100100100100001100100100001001001010010001010010001100100100100100100100100100100100001010010010010010010001100100001100010010010010001001001
010100100001100001001001001010010010010010010010010010001001001001001001010010100001010001001001001100100100010001010010001010001001001010010010
100001001001100001010010010001001001100100100100100010100100100100100100100001100100010100100100100001001001100100010010001001001001001100100100
001100100001001100010010010001001001100100100100100100100100100100100100100100100100010010100100100001001001010100010010001010010010010100100100
001100001010100100100100100100100100100100100100100100100100100100100100010001001001010010010010010100100100100010010100010010010010010001001001
100100100010010010100100100100100100010010010010010010001001001001001001001010100001010100010010010100100100001001001001001001010010010001001001
100010010010010010010010010100100100001001001001001001001001001001001001001100001010100010100100100010010010100100100010100010100100100100100100
001100001001100001001001001001001001010010010010010010100100100100100100010100001010100001010010010010010010001100100001100100100100100001001001
010001001001001001010010010001001001100100100100100100100100100100100100100001001100001010001001001001001001100010010100001010010010010001001001
001100100100100010010010010010010010100100100100100100100100100100100100001100100001100100001001001100100100100100001100001100001001001100100100
010010001001001010100100100010010010100100100010010100010010010010010010100001001100001100100100100001001001001100100001010100010010010010010100
001010001100001100001001001001001001010010100010100010010010010010010010100010010010001010100100100001001001100001100001010100001001001100100100
100100001100100010010010010010010010010010010010010100001001001001001001001010010001010001001001001100100100010001001001001010001001001100100100
100100001001100001010010010100100100010010100010010100001001001001001001001100001010100001100100100001001001001010100010010100001001001100100100
010001100010001010010010010001001001001001001001001001001001001001001001100001100100001010010010001001001001010010100001010010010010010100100100
010010010010010010100100100010010010001001001001001001010010010010010010100100001100010100010010010001001001100100100100001010100100010001001001
100001100010010010100100100001001001001001001001001001010010010010010010010010100100100100001001001010010010100010100100010010100100100010010010
001001001100001001001001001001001001010010010010100010010010010010010010100001001010001001100100100001001001010010001100010010001001001010010010
001001001001001100100100100100100100100100100100100100100100100100100100100001001100010001100100100100100100100010100100001010010010010001001001
001100001001010100100100100010010010100100100100100100100100100100100100100100001100010100001001001001001001100100001100010010001001001001001001
100100100100001100001001001010010010100100100100100100100100100100100100001100100010001100100100100010010010100001010100100010100100100001001001
010100010010010010010010010100100100001001001001001001001001001001001001010100010010010100100100100001001001010100010010010100100100100100100100
100100100001001010100100100100100100100100010100100100100100100100100100001100001010010010100100100100100010100001001100001001001001001100100100
100001001001001010010010010010010010010100010010100010001001001001001001010001010100100100100100100001001001010010001001010010001001001100100100
001001001100001001010010010001001001100010010100100100010010010010010010100001100100001001001001001001001001010001010010010001100100100001001001
001001100100100010001001001010010010010010010010010001001001001001001001001010010001100010001001001001001001001001001010001001100100100001001001
010100100001001001100100100100100100010100100010010100010010010010010010100100100100001001010010010010100010010100010001001100010010010010010010
010001100100100001001001001001001001010010001010001001100100100100100100010100010010100001001001001001001001001100010001010010100010010001001001
010100001100010001001001001001001001100100100100100010100100100100100100001010100001010001001001001100100100010001010010010010001001001100100100
100100001100100100001001001010010010100010010100010100010010010010010010001001001001010100100100100001001001001001010001001100001001001100100100
001010010001010010001001001001001001001001001001001001010010010010010010100010100100001010010010010010010010100010010100001001100100100001001001
100010010100010010001001001100100100001001001001001001001001001001001001010010001001100010100100100100100100010010100010100010100100100010010010
010001100010001100010010010100100100100100100100100100100100100100100100001001100100001100010010010100100100100010010100010100001001001010010100
100001010001100001001001001010010010010100010010010100010010010010010010001010001100100010100100100010010010001010001010001001100100100001001001
001010010010001100001001001001001001010001001010010010010010010010010010100010001010001100001001001001001001001100100001100100100100100001001001
001010010100001001001001001001001001100100100100100100100100100100100100001010010100010100100100100001001001100001001100100100010010010001001001
100001100001100100001001001001001001001001010010001010010010010010010010010001100100100100010010010001001001001100100001100100010010010010010100
001010100001001100100100100100100100100100010100100010100100100100100100100010100100100100100100100001001001100100010100010001010010010100100100
100100001001001100001001001010010010100100100100100100100100100100100100010100001001010100001001001001001001100100001100001010010010010001001001
010001001100100001010010010001001001001001001001001010001001001001001001100001010001100001010010010010010010001010001001100100010010010100100100
100010010100010010100100100100100100001001001001001001010010010001001001001001001010001010010010010010010010100100100100100010100100100100100100
100010010010010010100100100001001001001001001001001001010010010010010010010010001100010010001001001010010010100010100100001010010010010001001001
100100001001100010001001001010010010100100100100100010100100100100100100001010010001010010010010010100100100010001010100010001001001001010010010
100010010010010010100100100100100100001001001001001001100100100100100100010001001010001010100100100100100100100100100100100010100100100010010010
001001100010001001001001001001001001100100100100100100100100100100100100100001100100001001010010010001001001100100100100100100001001001010010001
010100001100001001100100100001001001010010010010100010001001001001001001001100001001001001100100100001001001001001100010100001001001001100100100
010010010010100100001001001010010010001001001001001010001001001001001001010100010100001100001001001010010010100100100100100100100100100001001001
001001001001001001001001001001001001001001001010010010010010010010010010100100001100001001001001001001001001001100100001100010010010010100100100
100010010010010010100100100100100100001001001001001001010010010010010010010001001010100001100100100010010010100100100100100100010010010010010010
010010010001100001100100100100100100010001001010010001100100100100100100001010001010100010100100100100100100001010010001100010010010001010010010
010010010010010010100100100010010010001001001001001001010010010010010010010010001001010010010010010001001001100100100100010001100100100010010010
001001100100001100001001001001001001100100100100100100100100100100100100100001100010001001001001001100100100100010010100100010001001001100100100
100100010010100001001001001010010010010010010010100010001001001001001001001100010001100001001001001100100100001001001010010010001001001010010010
010010010010010010001001001010010010001001001001001001001001001001001001010001100010010010010010010010010010100100001100010010100100100001001001
001010010001010010001001001010010010001001001001001001001001001001001001100100010100010010001001001010010010010100001100010001010010010100100100
100100001010010001010010010100100100001001010001001001010010010010010010010100001010001001010010010010010010001100100001100010010010010100100100
010100100100001100001001001010010010100100100100100100100100100100100100001100100001001100001001001010010100100001100100001010100100100001001001
100001100001001010100100100100100100010010010010010010001001001001001001010010100100001001100100100100100100010001010010001001010010010100100100
010010010010010010001001001010010010001001001001001001010010010010010010010001010100100010010010010100100100100100010100100001100100100010010010
010001010010010010001001001001001001001001001001001001010010010010010010010001010010001010001001001100100100100100100100100100100100100010010010
010010100100100001010010010001001001100100010100100100100100100100100100001010100001010001001001001001001001100001010100001010100100100001001001
100100100010100100001001001010010010001010010010001001010010010010010010001100100010100100100100100100100100001100010001100100010010100001001001
001010010100100001001001001001001001010001010010010010100100100100100100001010010100100001001001001010010010001010010001100100010010010010010010
100001100010001100001001001010010010100100100100100100100100100100100100001001010001010100001001001100100100010100001010100010001001001100100100
001010010001010010001001001001001001001001001001001001001001001001001001100100010100010010001001001100100100010010001100010001100100100100100100
001001100100001100010010010001001001100010100100010100010010010010010010100001100010001010001001001001001001010010100001001010010010100001001001
100010100010100001100100100100100100010010100010010100001001001001001001001001100001100100010010010100100100010001010001001010010010010001001001
010001001100001001010010010010010010010010010010010010100100100100100100010001001100001100010010010010010010001100001001100100010010010001001010
001001001010100100100100100100100100100010010100100010010010010010010010010010001001001010001001001010010010010001001100100001010010010001001001
010010010001010010100100100001001001010010010010010001100100100100100100001001001010010010010010010010010010001010100001100001100100100001001001
010010010010001010010010010010010010001001001001001001010010010010010010010001001010001100010010010010010010100100100100100100100100100001001001
100010010010010010010010010010010010001001001001001001001001001001001001001010010010010001001001001010010010100010010100001010100100100001001001
100001001001001100001010010100100100100100100100100100100100100100100100001001010001010010100100100100100100100010010100010100001001001010010010
001100100001001001100100100100100100100100100100100100010010010010010010100010100100010001100100100001001001100010010010001010001001001100100100
100100001001001100100100100100100100010010100010010100010010010001001001001100001100010100100100100100100100001010010001001100010010010001001001
100100100100100100001001001100010010100100100100100100010010010010010010001010010001100100100100100100100100010010001010010010001001001010010010
100010001001100100100100100010010010010010010010100010010010010010010010100010100100010010001001001100100100010001010001001001001001001100100100
010100100001001100010001001010010010100100100100100010100100100100100100001100100001010010001001001100100100100010001100001010001001001100100100
001100001010100001100100100100100100100100010100100100010010010010010010010010010010100001100100100001001001100001010010001100001001001100100100
010100001010100100001001001010010010010010010010010010001001001001001001001100010010010010100100100001001001001010001001001001010010010001001001
100010001010100001010010010100100100100100100100100100100100100100100100001010010001100001100100100001001001100100001100100010001001001100100100
100010010010010010001001001001001001001001001001001001100100100100100100010001100010001010010010010010010010100010100100100010100100100001001001
100001010010001010010010010100100100001010001001001001001001001001001001010001010001001010010010010100100100010100010010100010010010010010010010
100100010100100001010010010010010010010010010010010100001001001001001001001100010001100001001001001100100100010001001001001100001001001100100100
010001010100001001001001001001001001010001010001010001010010010010010010010001001010100001001001001001001001001100100001100010010010010010010010
010010001001010001001001001001001001001001001001001001001001001001001001010010001010100001001001001001001001010010100010100100010010010001001001
100100001001001001100100100100100100010010010010010010001001001001001001001100001001001010010010010100100100010010001001001001010010010001001001
010001001010100010010010010001001001100010100100010100010010010010010010100010001010010001010010010001001001001001010010001010001001001001001001
001001100100001100010010010100100100100010100100010100010010010010010010100001010100010100001001001100100100010001010001001010100100100100100100
001010100010010001010010010010010010100010010100010100010010010010010010100010100010010001001001001001001001010001010001001010100100100001001001
001100100100010100010010010010010010100100100100100100100100100100100100001010100001100010010010010100100100100001010100010100001001001010010010
100010010100010010010010010100100100001001001001001001001001001001001001001001100001010001100100100010010010010100100010010010100100100010010010
001100100001001100001001001001001001100100100100100100100100100100100100100100100100010010001001001001001001100010100100001010001001001001001001
001100010001100100010010010100100100010010010010010100001001001001001001001010100010010010100100100100100100001001010001010010100100100001001001
001001100100100001001001001010010010100100100100100100010010010010010010010001010001100010001001001100100100010010001010010001100100100001001001
010001001100010100010010010010010010010010010010010010001001001001001001001001010001010100001001001100100100001010001010001001001001001100100100
010100001100100001001001001010010010001001001001010010010010010010010010010100010010100001001001001010010010001010100001100100010010010010010010
001001001010001001100100100100100100100100100100100100100100100100100100100001001010010001010010010001001001100010100100001010001001001010010010
001100001010100001100100100001001001001001001001001001001001001001001001010100001001100001100100100001001001010100100001100010010010010010010010
010100010100100001100100100010010010010010010010010010001001001001001001001010100001100001001001001100100100010001001010001001010010001100100100
001100100100100001010010010001001001010100100100010100010010010010010010001100100001100001100100100100100100010010010010001001001001001010010010
001010100100100001001001001001001001001001001001001001001001001001001001010010010001100001010010010001001001010001100001100100100100100010010010
100001001010001001001001001001001001010100100010010100010010001001001001100001010100010001100100100001001001001010001010001010010010010100100100
001010001010100001001001001010010010100010010010100010010010010010010010010010001001100001001001001100100100010001001010010010010010010100100100
100001100010100100100100100100100100010010010010001001100100100100100100010100001010100010010010010010010010001100100001010010010010010001001001
001001001100001010010010010100100100010010010010010010010010010010010010100001001010010010001001001100100100001001001010010001100100100001001001
010100001010001001001001001001001001100100100100100100100100100100100100001100100010001001100100100001001001100100100100010100001001001100100100
100001100001001100100100100100100100010010100010010010010010010001001001010001100100001010100100100100100100010010010001001001100100100001001001
001100100010010010001001001001001001001100010001001001100100100100100100100100100100001100001001001010010010100100010100100100100100100001001001
001001001001001001100100100010010010100100100100100100100100100100100100100010001100001010100100100001001001100001010100100010001001001100100100
100100001010100100010010010010010010010010010010100010001001001001001001001010001001100010001001001100100100010001100001010001001001001100100100
100100001010001001010010010001001001100100100100100100010010010010010010001010010001010001001001001100100100010001010010001001001001001100100100
010100010010010100010010010001001001001001001001001010001001001001001001010100100010010100010010010010010010001100010010010100010010010010010010
010001001001001001001001001010010010100100100100100100100100100100100100100010010100001001001001001100100100100001010100100001001001001100100100
010100010001100001001001001010010010100100010100100100010010010010010010010001010001010010001001001001001001010001010010001001010010010001001001
100100100100100001010010010001001001010010010100010010010010010010010010001100100001100001001001001001001001001001100010001001001001001100100100
100001001001001100010010010100100100010010100010010010010010010010010010010010001100001100100100100100100100010001010010001001100100100001001001
010100100010010100010010010010010010100100100100100100100100100100100100001100010001010010001001001100100100100100001100001100100100100001001001
001010010001100100001001001010010010001001001001001001001001001001001001010010001010100100001001001010010010001001010010100001100100100010010010
100100100001100100001001001001001001010010100010010100001001001001001001001100100010100010100100100001001001001001001001010001010010010100100100
001001100001001001001001001001001001100100010100100010100100100100100100100001010100010010001001010001001001100010010100001001001001001001001001
001001010010100001001001001010010010001001001001001001001001001001001001010001100010100001010010010010010010010100010010100100010010010001001001
001100010100100100001001001010010010100100100100100010010010010010010010010100100001100100001001001010010010010010001010100010010010100001001001
010010010100100010001001001010010010001001010001010001010010010010010010010100001001100010010010010010010010001100100001100001010010010001001001
001010001100001001010010010010010010010010010010010010001001001001001001100010001001010010001001001010010010010001001001001001010010010001001001
010100001100100001100100100100100100010010010010010100001001001001001001010100001001010001001001001100100100001001010010001100100100100001001001
100001010100010001010010010100100100001001001010001010010010010010010010001010100010010001100100100010010010001100010001010100001001001010010010
100001001001100001010010010100100100100100100100100100100100100100100100001001010001001001100100100100100100100100010100010010001001001010010100
010010001001010010010010010010010010001001001001001001001001001001001001010010001100100100010010010010010010100010100100100100100100100010010010
010010010100010010100100100010010010001001001001001001100100100100100100010100010001001100010010010001001001100100010100100100010010010010010010
010010010010100010100100100001001001010010001010010010100100100100100100010001010010100100010010010010010010001010100001100100010010010010010010
010010001100010010100100100100100100001001001001001001010010010001001001001100001001001010010010010010010010100100100100100100100100100100100100
100001100001001100010010010010010010010010010010100100010010010001001001100010001100001100100100100100100100001001001010010010010010010001001001
010010100001010010001001001001001001010010001010001001100100100100100100010010100100001100001001001001001001001100010001010001010010010010010010
001001010100001010010010010001001001001001001001001001001001001001001001100001100001001100100100100001001001010010010010001100010010010001001001
010100010100001100010010010100100100010010010010010010001001001001001001100100001010010010001001001100100100010010001001001001010010010100100100
001100010010001100001001001001001001100100010100100100100100100100100100001100010001001100100100100001001001100100001010100001001001001010010010
100100100001100100010010010001001001010100010100100100010010010010010010001100001001100100010010010010010010001010001010100100001001001100100100
100001001010100100010010010010010010100100010100100100100100100100100100001010010001001010001001001010010010010001001100010010010010010010010010
100010100001010010100100100100100100010010010010010100001001001001001001001010100001010100010010010100100100010001010010001001001001001001001001
001001001001010001001001001001001001010010100010010010001001001001001001100001001100010001100100100001001001010001100001001001010010010001001001
010010100010001100001001001001001001100100010100100100100100100100100100100010010100010010001001001001001001100010100100010001001001001010001010
001001001001010100100100100100100100100100100100100100100100100100100100100010001100010010001001001100100100100001001010001100010010010010010010
001100001100100010001001001010010010100100010010100010010010010010010010001100010001010010001001001100100100010010001010100010001001001100100100
001001100100001100010010010100100100010010010010010100001001001001001001100001100100010100001001001100100100010001001010010010001001001100100100
001001100001001001010010010100100100100100100100100100100100100100100100100001100100010001001001001100100100100010010100001100001001001100100100
010010001010010001010010010100100100001010001010001001010010010010010010100100001010010010010010010100100100001100010001100100010010010100100100
010100001100010010010010010001001001010010100100010010010010010010010010001100100001010100010010010100100100010010010010010010001001001010001010
100100001100010010010010010010010010010010010010010001100100100100100100001100001010010010010010010010010010001100001001100010010010010010010010
010010010010010010001001001010010010001001001001001001001001001001001001100100001010100010001001001010010010010010010100100001100100100001001001
001001001001001010100100100100100100010100100010010010010010010010010010100001001100010010010010010010010010010010010001001010001001001100100100
010100010010010001001001001010010010001001001001001001001001001001001001010100001010010001001001001010010010010100010010001010100100100010010010
001010100100001001100100100010010010010010010010100100010010010010010010100010010010001010001001001100100100001001001010001001001001001010010010
100010001001100100001001001010010010010010100010010010001001001001001001001010001010100100100100100001001001001001100001100001010010010100100100
100100001001010001001001001001001001100100100100100100100100100100100100100100001100100001010010010001001001100010001100010001001001001010010010
100010100010100010010010010010010010100100100100100100100100100100100100001001100001010010001001001010010010010001001100010010100100100001001001
100100100100100100001001001010010010010100010010010010001001001001001001010100100001010100001001001010010010010001001010001001100010010001001001
100010010100010010010010010010010010001001001001001001001001001001001001010001100001001010010010010010010010010100010100100100100100100010010010
010100100001100010010010010010010010010010010010010010001001001001001001001100010001100001001001001010010010001010001010001010100100100001001001
001001010001100001100100100100100100100010010100100100010010010010010010100010010100100001001001001001001001010001001001010001100100100001001001
010001010100100100010010010010010010010010010010100010001001001001001001001001010001100100001001001100100100010010001010010001001001001100100100
100001100100001001010010010100100100010010010010010010010010010010010010010001100100010010100100100010010010010001001010001001001001001100100100
010100010100100001001001001100100100010010100010010010001001001001001001001010010001010001001001001100100100001001001001001010010010010100100100
010010001001010010010010010010010010001001010001001001001001001001001001001001001010100100100100100001001001001100010010100100100100100001001001
001001100010100001001001001010010010100010100100100100010010010010010010001001100001100100001001001100100100010001100010100100001001010100100100
100001100100010010001001001001001001001001001010001010010010010010010010100001100010010001010010010010010010100100010001010100010010010010010010
100100100010100001100100100001001001010010010010100100001001001001001001001010100001100010100100100001001001001001010010100010001001001010010010
010100001001001001010010010001001001100100100100100010100100100100100100100100001100010010100100100001001001100010010010001001001001001010010010
010010010010100100010010010100100100001001001001001001010010010010010010010001100010100100010010010010010010001100010001100100010010010100100100
010010010100100010001001001010010010010010001010010010100100100100100100010100100001010001010010010010010010001100010001100100010010010001001001
001100010001010010010010010010010010001001001001001001001001001001001001010100010100001010010010010010010010001010010010010010100100100010010010
100010010100010100010010010001001001100100100100100010100100100100100100010010010001010100001001001001001001010010001100001010010010010001001001
001001001001001100001001001001001001010010010010010010010010010001001001100001001100100100100100100001001001001001010010001100100100100001001001
010010010010010010001001001010010010001001001001001001001001001001001001010010001010010001010010010010010010010001100100010010100100100010010010
010100100100001100100100100010010010010010010010010010100100100100100100010010100010010100100100100010010010001100010001100010010010010010010010
010010100001010010010010010001001001001001100001001010001001001001001001001001010010100001100100001001001001001001100010100100100100100001001001
001001100001001100010010010001001001100100100100100100100100100100100100100100100100001100100100100001001001100010100010010100001001001100100100
001001100010001001001001001001001001100100100100100100100100100100100100100010010100001001001001001010010010100001001100001001010010010100100100
010010010100010100010010010010010010001001001001001001001001001001001001010010010001001100010010010010010010100010001100001010100100100010010010
010100010100100001001001001010010010010010100010010010001001001001001001001010010001100001001001001100100100010001010010010100001001001100100100
010010001010010100001001001001001001100100100100100010100100100100100100001100001010100100100100100001001001100010010100010001001001001100100100
100100100010100100010010010010010010010010100010010100001001001001001001001100010001010100001001001100100100010010010010001100001001001100100100
010100010001001010001001001010010010010010010010010010100100100100100100010100010010001001010010010010010010001100100001100100100100100001001001
010010010010010010010010010010010010001001001001001001010010010010010010010001001010010001010010010010010010100010100100100100100100100010010010
010001100001001010100100100010010010010010010100100100010010010010010010010010100100001010100100100100100100010001001001010001010010100001001001
010010100010001100001001001001001001010010010010010010100100100100100100001001100001001100001001001001001001001100100001100100010010010001001001
010001010100010010100100100010010010001001001001001001100100100100100100010001100001001010010010010010010010100100100100100100100100100010010010
100100001001001001100100100100100100010010100010010100001001001001001001100100001100001010010010010100100100001001001010001001001001001010010010
100010100001100001001001001010010010100100100100100010010010010010010010001001001010001010100100100001001001010010010010010001001001001010010010
001100001010100100100100100001001001010100100010010010001001001001001001001010001010010100100100100001001001001010010010001001001001001100100100
001100100100100100001001001010010010010010010010010010001001001001001001010010010001001100001001001010010010001001001010001001010010010001001001
010001001010001010001001001001001001001100100001001001100100100100100100010001001100001100010010010001001001100100100100100100010010010001001001
001100100010001100001001001010010010010010100010010010001001001001001001010001100001001001001001001001001001001001010001010001010010010001001001
010010010010010001001001001010010010001001001001001001001001001001001001010010100010001001010010010010010010001010010010010010100100100010010010
100010001001010001100100100001001001001001001001001001001001001001001001001010001010010001100100100010010010001001100010010100100100100100100100
001001100100001001010010010010010010010010010010100100001001001001001001100001010010001100100100100010010010010001001010010100001001001100100010
100001001001010001100100100100100100010010010010010010100100100100100100001100010100100001100100100010010010001100100001100100100100100010010010
010010010001010100010010010010010010010010010010010001100100100100100100010010001001100100010010010010010010001100100001100010010010010010010010
001010010100001001100100100010010010010001001010001001010010010010010010100010010010001100010010010010010010001100010001100100010010010010010010
001001001100001001100100100100100100010010010010010010001001001001001001100010010010001010001001001010010010010001010001001001010010010001001001
001100100001100100010010010100100100010010100010010010001001001001001001001010001001100010100100100001001001010001001001001001001001001010010010
100010010010010010001001001100100100001001001001001001001001001001001001001001100010010001010010010010010010010100010100010010100100100010010010
001001010001001100010010010010010010010010010010010010001001001001001001100010100100001001010010010001001001001001010010001001001001001001001010
010001010010001001100100100100100100010010100010010010001001001001001001100001010100001001001001001100100100001001010001001010001001001100100100
100010100010010100001001001001001001010001001010010010010010010010010010001010100100100100001001001001001001001010010001100100010010010010010010
100100100100001100010010010010010010100100100100100100100100100100100100010100100001001100001001001010010010100010001100001010100100100001001001
010010010001010010100100100001001001001001001001001001001001001001001001100001100100100010010010010001001001100100100100100010010010010010010010
100001001001100100100100100100100100010010010010010010001001001001001001001100001010100100010010010100100100001001100001010010001001001001001001
100100010100100100001001001010010010010010010010010010001001001001001001001100010001010010100100100010010010001001001010001001001001001001001001
010100001100100001010010010010010010010010010010010010001001001001001001001100010001010001001001001100100100001001001010001001001001001010010010
100010100100010001010010010100100100001001001001001001001001001001001001010001100010010001010010010100100100010010100010100010010010010010010010
010001100100010010100100100100100100100100100100100100010010010010010010100001100001001001001001001100100100010010001100001100100100100001001001
001001001100100100010010010010010010010010010010100010001001001001001001010001010001100100001001001001001001001010001010100001100100100001001001
100100001010100100001001001001001001010010010010010100001001001001001001001010100010100100100100100001001001001001100001001010010010010100100100
001001100001001001010010010100100100100100100100100010010010010010010010100001010100100001001001001001001001100001001010010001001001001001001001
001010010010010010010010010010010010001001001001001001001001001001001001100010001010100010010010010010010010010001010010100001100100100100100100
010010010010010010100100100001001001001001001001001001010010010010010010100100100010001001010010010010010010100100100100100010010010010010010010
001001001100001100001001001001001001100100100100100010100100100100100100100010001001100010001001001001001001100001001010010001010010100001001001
010010010001010100100100100001001001001001001001001001001001001001001001100001010100100100010010010010010010100010010100010100100100100001001001
010001001010010001100100100100100100010010001010010010100100100100100100010001001010010001100100100100100100001100001001100100001001001010010010
001001010100001100100100100100100100010010010010010010001001001001001001100001010010100010001001001100100100001010001010001001001001001010010010
010100100010001001001001001010010010001010010001010010010010010010010010010100100010001100010010010010010010001100100001100100010010010100100100
100010001100001100001001001001001001100100100100100100100100100100100100001100001001001100001001001100100100100100010100010010010010010100100100
001010010010010001001001001001001001010010010010001010100100100100100100010010010010010001001001001001001001001100010001001100100100100010010010
100010001010100100001001001001001001100100100100100100100100100100100100001010100010001001100100100001001001100001010100001100001001001100100100
100100100010100010010010010010010010010010100010010010001001001001001001001010100001010001001001001100100100010001001010001001001001001010010010
010100001001100100010010010010010010010010010010010010001001001001001001001100001010100100100100100001001001001001010001001100010010001100100100
010010010100001010001001001001001001001001001001001001100100100100100100010001100001001001010010010010010010100100100100100100100100100010010010
100010010010010010001001001001001001001001001001001001100100100100100100010001001001100100010010010010010010100001100100100100100100100001001001
100100100100100001001001001010010010010010010010010100001001001001001001001100010001100001001001001100100100010001001010001010001001001100100100
001001001010100100001001001001001001010010100010010100010010010010010010010010001001010010001001001001001001001001100001001001010010010010010010
100100100010100001010010010010010010100100100100100100100100100100100100001100100001100001001001001100100100100100010100010100001001001010010100
010010100010001010001001001010010010001001001001001001010010010010010010010001100010001010001001001010010010100010100100100010100100100010010010
100100100010001001100100100100100100010010010010010010001001001001001001001001010001001001010010010100100100010010001001001001001001001001001001
001100100001100001100100100001001001010100100010100010001001001001001001010010100010010010100100100001001001001010001010010001001001001010010010
100100100001100100010010010001001001100010010010100100010010010010010010001010010001100100001001001010010010010001001010010100001001001100100100
100100001001100010100100100100100100010010010010010010001001001001001001001100010001100100010010010100100100010001010001010010010010010001001001
001001100001100001100100100100100100100100100100100100010010010010010010100001100100100001100100100100100100100010100010001001100100100001001001
010010010100010010001001001100100100001001001001001001001001001001001001010001100010010100100100100100100100010010100010010010100100100100100100
001010001010100100001001001001001001001010001010010010010010010010010010010001001001001100010010010010010010001100010001100100010010010100100100
010001010100010001001001001001001001001010010001001010010010010010010010010001100010100010010010010010010010001100010001010010010010010001001001
001010010001100010010010010010010010001001001001001001001001001001001001100010100100100100010010010010010010100010010100100100100100010010010010
001001001010001100001001001001001001100100100100100100100100100100100100100001100100001100100100100001001001100001001010010010010010010100100100
001001100100100010001001001001001001010010100010010010010010010010010010100001100100010010001001001010010010001010001010010001100100100001001001
001010010001001010010010010010010010001001001001001001001001001001001001010100001100001100010010010001001001100100100100100100100100100010010010
100010100001100100001001001010010010100100100100100100100100100100100100001001100010100100100100100001001001100010010100100100001001001100100100
010001100001001001010010010001001001010010100010010010010010010010010010010010100100001100100100100010010100001001010010001010100100100001001001
100001100001001100100100100010010010010010100010010010010010010010010010100001100100001100100100100100100100001010100010001010100100100001001001
010100010010010100100100100100100100001010001001001001010010010010010010001100001010100010100100100100100100001100010001100010100100010010010010
100001100100100100010010010010010010100100100100100100100100100100100100010001100001100010001001001100100100100010100100010001001001001100100100
001100001010100100001001001001001001010100010010100100010010010010010010100010010010100100100100100001001001010010001010100010001001001100100100
001001100010100001010010010010010010100100100100100100100100100100100100001001100001001001010010010100100100100100010100100100001001001100100100
010010100100010100100100100100100100010010010010010100001001001001001001001010010001010001001001001100100100001001001010001001100100100001001001
001100100010001010100100100001001001010001010010010010100100100100100100010100100010001001010010010010010010001100010001100100010010010010010010
001100010100100001010010010010010010100100010100100100100100100100100100010100001001001001001001001010010001010100100010100100100100100001001001
001001100001001001010010010010010010010100100010010100100100100100100100010001100100001001010010010010010010001100100001010100010010010001001001
010100001100001001010010010010010010100100100100100100100100100100100100001100001001001001001001010100100100100100001100010001001001001100100100
001010010001010010001001001001001001001001001001001001001001001001001001010010010100001010001001001100100100010010001010100001100100100100100100
001100100001001001001001001001001001100100100100100010100100100100100100001010100010001010100100100001001001010100100010001001010010010001001010
001001001100100001001001001001001001010010010010010010100100100100100100100001001010001010001001001001001001001100100001100010010010010010010010
100010010100010010001001001001001001001001001001001001001001001001001001001100010001010010010010010010010010010100001100010001100100100010010010
100001001100001001010010010100100100001001001001001001001001001001001001010001001001001001100100100100100100001001100001010100010010010100100100
010001100001001001100100100100100100010010010010010010001001001001001001100001100100001010100100100100100100001010001001010001010010010100100100
100001001010010001100100100010010010100010010010100100010010010010010010100010001010001001001001001100100100010001100001010010001001001100100100
001001001100001001100100100010010010100100100100100100100100100100100100100010001100001001001001001001001001100010100100010010001001001001010010
100100100010100010001001001010010010001001001001001001010010010010010010010010100001100100010010010001001001001100100001100010010010010001001001
010001001100001010100100100100100100010010100010100100001001001001001001100010001010001010001001001010010010010001010001010001010010010001001001
100001100100100001100100100100100100100100100100010010010010010010010010001010100001100010001001001100100100100001100010001010010001001100100100
010001100001100100100100100100100100100100100100100100010010010010010010001001001001100010001001001100100100010001100100010001001001001001001001
010100100001100001010010010001001001010010010010100010001001001001001001001100100001100001010010001100100100001001100001100010001001001100100100
001100001001001100010010010001001001100100100100100100100100100100100100100010010100001100010010010001001001100001001100010100001001001010010010
100010100001100100100100100001001001010010010010010010100100100100100100001001100010001001010010010010010010001100100001100100010010010001001001
100001001010001010010010010001001001001001001001001001001001001001001001001001001100001001010010010010010010010001100010010100001001001100100100
001001001001001100010010010010010010010010100010010010001001001001001001100001001100001010001001001010010010010001001001010001010010010001001001
001010001100010010001001001001001001001001010001001001001001001001001001100010001010010010001001001001001001001010100010010100100100100010010010
010010010010010010100100100001001001001001001001001001001001001001001001001100001010100001010010010001001001100100100100100100100100100100100100
001001001100001100100100100010010010100100100100100100100100100100100100100001010100010100100100100001001001100010010100001001001001001010010010
001001100100001001010010010010010010100100100100100100100100100100100100001010010001100010001001001010010010010001001100010010100100100001001001
001001001100010100001001001001001001010100100010010010010010010010010010100001001100010010100100100001001001010100100010001001010010100010010010
100001100010001001010010010100100100001001001001001001001001001001001001100001010100001001010010010010010010010100010001010001010010001100100100
001100100100100010010010010001001001100100010100100100010010010010010010001100100001100001001001001010010010010010010010010010001001001100100100
001001001001001001010010010001001001100100100100100100100100100100100100100100010100010001010010010001001001100010010010001100001001001100100100
010010010010010100100100100100100100001001001001001001010010010010010010010100001001100100100100100001001001100100100100010100010010010010010001
010010010010001010100100100010010010001001001001001001010010010010010010010100100010001100010010010001001001100010100100100100010010010010010010
001001010100001001100100100010010010010010010001010010010010010010010010010010001001001001100100100010010010001100010001100100100100100010010100
001010001001010100010010010010010010001001010001001001001001001001001001010010001001001010100100100001001001010100100001100100010010010010010010
001010010001010010001001001001001001001001001001001001001001001001001001100100100100100010001001001001001001010100010010010010010010010010010010
010010010100100010100100100100100100010001001010010010100100100100100100010001001010100001010010010010010010001100001001100001010010010100100010
001001001100010100001001001001001001010010010010010100001001001010010010100001001010010100100100100001001001001010001001001100001001001010010010
001001001001001001100100100100100100100100100100100100100100100100100100010010001100010010100100100100100100010100001010100010010010010001001001
001010001100100001010010010001001001100100100100100100010010010010010010001001100001100010001001001100100100010010010100001001001001001100100100
100001001001010001100100100100100100010100010010010010010010010001001001001010001100010010100100100100100100010010010001001001100100100001001001
100100100001100100100100100100100100010010100010010010001001001001001001001100100001100010100100100100100100001001100001010010100100100001001001
100010100010010100001001001010010001100100010100100100010010010010010010001010010001001100100100100001001001010001001010100010001001001100100100
001010010010100001100100100010010010001010001001010001010010010010010010001010010010100001100100100100100100001100001001100010010010010010010010
001010100100001100001001001100100100100010010010010010010010010010010010100100100010001100001001001100100100010010001001010010010010010100100100
100100100001100100010010010010010010010010010010010010100100100100100100010100100100100100010010010010010010001100010001100100100100100001001001
100010010010010100100100100001001001001001010001001001010010010010010010010100001010001100010010010010010010001100100001001100010010010010010010
001010010001010010001001001001001001001001001001001001001001001001001001100100100100001001001001001010010010100100100100010010100100100100100100
010100001100001100001001001001001001010010010100010100010010010010010010010010010001001100100100100001001001001001001001001100001001001010010010
100001001010100100100100100010010010100100100100100100100100100100100100001001001001100100010010010100100100100100010100010100001001001010010010
010010010100010010001001001100100100001001001001001001001001001001001001010010010001010100100100100100100100010010010100010100100100100100100100
001010010010010010001001001010010010001001001001001001001001001001001001100100100010010001001001001010010010100100010100100001100100100010010010
001100001001001001010010010100100100100100100100100100100100100100100100100100001001001001001001001100100100010001010010001100010010010100100100
010010001100010001100100100010010010010001010010010001010010010010010010010001010001100001010010010010010010001100100001100100010010010010010010
100100010100100001010010010010010010010010100010010010001001001001001001010010100001100001010010010001001001001001001010010001001001001010010010
001001100100100010001001001001001001010010010001001001010010010010010010100100100010100100001001001001001001001100100001100100010010010010010010
001100001100001001010010010100100100010100100100010010010010010010010010100010001100010001001001001010010010010100100010001001001001001001001001
100100001100001010100100100100100100001001010001001001001001001001001001010010100010010010100100100100100100001100100010010010100100100010010010
001100001100100001001001001010010010010010010010010010001001001001001001001100010010100010001001001100100100001001001010010001001001001100100100
001001100100001001001001001001001001010100010010010100010010010010010010100001100010010001100100100001001001010100001001001010100100100001001001
100010010100010010100100100100100100001001001001001001001001001001001001001010100001100010100100100010010010010001100100100010100100100100100100
001001010001100010001001001001001001001001001001001001001001001001001001100001001100010010010010010010010010100001010001100001100100100010010010
001001100001001001001001001001001001010100010010010010010010010010010010100001010100010010100100100001001001010010010001001001100100100001001001
010010010001010010010010010001001001001001001001001001010010010010010010100100001100100001010010010001001001100100010100100010100100100010010010
010010010010010010100100100100100100001001001001001001001001001001001001001100010001001100100100100010010010100010010010010001100100100010010010
001100100010100100010010010001001001010100010010010100001001001001001001001100001001100100001001001100100100010100001010001100001001001100100100
100001100001010100100100100010010010001001001001010010010010010010010010001001001100010100100100100010010010001100100001100100010010010010010010
001001100010001010001001001001001001100100010100100100100100100100100100100001010100100100100100100001001001100010001100001001001001001100100100
010010100001100001001001001010010010010010001001010010010010010010010010010100100100100001001001001001001001001100010001100100010010010010010010
100100100001100001100100100100100100100100100100100100100100100100100100001010100001100001100100100010010010100001100100010010001001001100100100
001001001001001001001001001001001001010100010010010010010010010010010010100001001100010010100100100001001001010010010001001001100100100010010010
001001100100010100010010010001001001100010010100010010010010010010010010100001010100001010010010010001001001001001001010010001001001001010010010
010100100010010010010010010010010010001001001001001001001001001001001001010100100001001001010010010010010010001100100010100100100100010010010010
010100001100100001001001001010010010010010010010010010001001001001001001001010001001010001001001001100100100010001001010001001001001001100100100
001010100001100100010010010010010010010010100010010100001001001001001001010010010001010100100100100001001001001001001001001100001001001100100100
010100100100010100001001001001001001010010100010010010010010010010010010001010100001001100100100100010010010001001001001010001001001001001001001
001001010001010010010010010100100100001001001001001001010010010010010010100001001010001001010010010010010010001100100001100100010010010010010010
010100001001100100001001001010010010010010010010010010001001001001001001001010001001100100001001001010010010001001001010001010001001001001001001
001001001010100100010010010001001001100010010100010100010010010010010010100001010010100100100100100001001001001001001001001001001001001010010010
001001001100100001001001001001001001010010010001010001010010010010010010010001001010100001010010010001001001001100100001100100100100100010010010
001100100100001010010010010010010010100100100100100100100100100100100100010010100001001100001001001001001001010001100100010010100100100001001001
010100001010100010010010010100100100001001001001001001010010010010010010010100001010001010010010010010010010001100100001100010010010010001001001
010100100100100001100100100010010010010010010010010010001001001001001001001100100001100001001001001100100100010010010010001001001001001100100100
001100100100010100010010010100100010010010010010100010001001001001001001001100100001001100010010010001001001001001001010010001001001001010010010
001100100100100100001001001010010010010010010010010010001001001001001001010010100001010100001001001001001001010001001001001001010010010001001001
010100100010100010001001001010010010010010010010100100001001001001001001001010010001100010100100100010010010010001001001001100010010010001001001
001001010001001100100100100010010010100100100100100100100100100100100100100010100100010100001001001001001001100010010100001010001001001010010010
010001001001001001010010010100100100010100100010010010001001001001001001010100001100001010001001001100100100001010010001001010010010010100100100
010100100100100001001001001010010010100010100100010010010010010010010010001010010001010001001001001010010010010001010010001010001001001010010010
001001100001001100010010010100100100100100100100100100010010010010010010100010100100001100100100100001001001010001100010001010001001001100100100
001001001100010001010010010100100100010100010010010100001001001001001001100010010100010001001001001100100100001001010001001001001001001100100100
001100100100010100010010010001001001010010010010010010001001001001001001001100010001001100001001001001001001010010001010010001001001001010010010
010001010001010001001001001001001001100010010010010100010010010010010010100010010010100010001001001100100100010001001001001010010010010100100100
001001100001001100100100100100100100100010010100010010010010010010010010100010100010010100001001001010010010010001001010001001100100100001001001
100100100100100100001001001010010010100100010010100010010010010010010010001001100001100100001001001100100100010010001010001001001001001100100100
100100100100010001010010010001001001100100100100100100010010010010010010010100010001100010001001001100100100010100001001010001001001001100100100
100010100001100001100100100100100100010010010010001010100100100100100100001001100100100010100100100100100100001100010001100010100100100001001001
010001100100001100100100100100100100100010100100010100010010010010010010100001100100010100001001001010010010010001100001001100100100100001001001
001001001100001001100100100100100100100100010010100100010010010010010010100001001100001001010010010001001001010010001001010010001001001100100100
010001010100001100010010010100100100001001001010010001010010010010010010010001010010001100100100100010010010001100010001100100010010010010010010
010010100100100010010010010010010010010010100010010010001001001001001001100001001001010001001001001001001001001001001001001001100100100001001001
010001100100010001100100100100100100100100100100100100100100100100100100001001010001100001001001001100100100100100001100010010100100100001001001
001100001001100100100100100010010010100100100100100100100100100100100100100010001100100100100100100001001001100001100100010010001001001100100100
100100010001100001001001001010010010001001001001001100010010010010010010010010001100100001010010010001001010001010100001100100010010010010010010
100100100001010010100100100010010010001010010001010010010010010010010010001100100100100010010010010100100100001100100001100100010010010010010010
001001001100001001001001001001001001010010010010010010010010010010010010100010001100010001100100100001001001010001001010001001010010010010010010
010100100100100100001001001010010010001010010001001010010010010010010010100100100001010100010010010001001001001100100001010100010010010010010010
001001100001001010010010010001001001100100100100100100100100100100100100100001010100001100100100100001001001010010001010001010001001001100100100
001001100100100100010010010010010010100100100100100100100100100100100100001010100001100010001001010100100100100001001100010001001001001100100100
100100010001100100010010010001001001010010010010010010100100100100100100010100001010001100010010010001001010001100100001100010010010010001001001
010001010001010010001001001010010010001001001001001001100100100100100100010001010100100001010010010010010010100010001100100100100100100001001001
001001100100100100001001001001001001010010010010010100010010010010010010100001100010100100100100100001001001010010001001010001100100100010001010
100100100100010001100100100100100100100100100100100100010010010010010010001010100001001100100100100100100100010001001010001010010001010001001001
001001100100010001100100100010010010001001001001010001010010010010010010010001001010001001010010010010010010001010100001100010010010010001001010
001001001010001001001001001001001001100100100100100100100100100100100100100010001100001001100100100001001001100001001010100010001001001100100100
100010100010001100010010010100100100001001010001010001010010010010010010010010010010100100010010010010010010001010010001100010010010010001001001
100100010100001001010010010001001001100100100100100100100100100100100100010100010001001001001001001001001001100001001100100100010010010001001001
010100001001100100010010010010010010010100010010010010001001001001001001001100010001010100001001001100100100010100001001001010001001001100100100
100010010010100001010010010001001001010010010010010010100100100100100100010001001100100010010010010001001001001100100001100100010010010001001001
010010010010010010010010010001001001001001001001001001100100100100100100010010001010010001001001001100100100100010010100100100100100100010010010
001010010010010010001001001001001001001001001001001001001001001001001001010010010010010010001001001100100100100010001100001010100100100010010010
001100100010010010001001001001001001001010100001001001100100100100100100010100100100001010001001001010010010100100100100100010100100100001001001
100001001010010001100100100010010010001010010010001001010010010010010010010001001100010010010010010010010010001100100001100001010010010100100100
001001001010100010001001001010010010010010100010010010001001001001001001100010100001010010001001001100100100001001001010001001100100100001001001
010100100100001100001001001001001001100100100100100100010010010010010010100100100001001100010010010001001001010100010010100010001001001010010010
100100001010001100001001001010010010100100010100100100100100100100100100001100001001001100100100100010010010100010010010010010100100100001001001
001010001100010001001001001001001001100100100100100100100100100100100100010010001100010010001001001001001001100001100100001001001001001100100100
001001100100001100001001001001001001010010010010100100010010010010010010100001010100001100100100100001001001010001001010001010001001001010010010
010100100001100100100100100100100100100100100100100100100100100100100100010010100100010100100100100001001001100001010100010010100100100001001001
100010100010100100001001001001001001100100010100100100100100100100100100100010010010100100010010010010010010100001001100100001001001001001001001
001010100100001010001001001001001001010010010010010010010010010010010010100100010001001010100100100001001001001010010010001001001001001010010010
001100100001100001100100100001001001010010100010010100001001001001001001100100010001100001100100100001001001010010001010010010001001001010010010
010010010001010010100100100001001001001001001001001001001001001001001001010100010100001001010010010001001001010010001010100100100100100010010010
010010010010010010001001001010010010001001001001001001001001001001001001010001010100010010001001001100100100010010010010010001100100100010010010
001001010010001010001001001001001001010001001001001001010010010010010010010001010010001010001001001001001001001100010001100001010010010001001001
010010010010010010100100100001001001001001001001001001001001001001001001010010010010010010001001001010010010100100010100010010010010001100100100
100010010100010010100100100010010010001001001001001001100100100100100100010001010010100010010010010010010010100100100100010001100100100010010010
010010010010010100010010010010010010001001001001001001001001001001001001001001010001010100010010010010010010010001001100010010100100100010010010
100100001001100100001001001010010010010010010010010100001001001001001001001100010001100100100100100001001001001001010010001010100100100001001001
001100100100100100001001001010010010100100100100100100100100100100100100001100010001100100001001001100100100100100001100100010010010010010010100
010001100001001100100100100010010010100010010010010010010010010010010010010001010100010100100100100001001001010001010001001001001001001100100100
100001100010100001100100100100100100010010100010010010001001001001001001001010010001100100010010010100100100010001010010001001001001001010010010
010010010100010010010010010100100100001001001001001001001001001001001001010001010001001010100100100010010010100100001010010001100100100010010010
100100100100100010100100100100100100010010010010010010001001001001001001001010100001010100001001001100100100001001001010001001100100100100100100
100001100010001001010010010100100100010010010010010010010010010010010010100001100010010001001001001100100100001001100001001001010010010001001001
001100010010010010001001001001001001010100001010001001100100100100100100100001100010010010001001001010010010001100100001010010010010010001001001
100001001100100001001001001001001001100100100100100100100100100100100100010001001001001001001001001100100100100001001100010001001001001100100100
010100010010010010001001001001001001001010001001001001001001001001001001010100010100010010001001001010010010010100100010001001100100100010010010
001001100010001010010010010001001001010010010001001010010010010010010010100001001010010100010010010001001001001100100001100100010010010001001001
001010100001010010100100100001001001010100100010010010001001001001001001010001100100010010100100100001001001010010010001001001010010010100100100
001010001010001001001001001001001001100100100100100100100100100100100100100010001100001001100100100001001001100001010010100010001001001100100100
100010100100001001001001001010010010100010010010100010010010010010010010001010100001010001001001001100100100010001001001001001001001001100100100
100100001010010010010010010100100100001001001010001010010010010010010010010100001010010100100100100010010010001010100001100100100100100001001001
010100100001100100100100100001001001100100100100100100100100100100100100100010010100100100100100100001001001100001001010001001010010010100100100
100001010100010001100100100100100100001001001001001001001001001001001001010001010001010100100100100100100100001010010010001100010010010010010010
001010001010010100001001001010010010001010001001010010010010010010010010100001001001010100010010010010010010001100100001100010010010010100100100
010010010001100010100100100001001001001001001001001001001001001001001001100100010100100010001001001010010010100100100100010100100100100001001001
001100100100100100010010001001001001100100100100010010010010010010010010001100100001010100001001001010010010010010100010001001001001001010010100
001100100001100010001001001010010010010010010010010010001001001001001001001010010010010010100100100001001001001001001001001001010010010100100100
100100100100001001010010010100100100100100100100100100100100100100100100001100100001010001100100100100100100100100100100010010100010100001001001
001010100001001001001001001001001001010100100010100010010010001010010010100010100100100010100100100001001001010010100010001001001001001001001001
100010010100010010100100100100100100001001001001001001001001001001001001010100010010100010100100100010010010100100001100100010100100100100100100
001100001001001001010010010010010010100100010100100100100100100100100100100100100100010001001001001001001001100100100100001001100100100001001001
100001100100100001001001001001001001100100100100100100100100100100100100010010001001010001001001001001001001100001010100010010100100100001001001
001010010001010010001001001010010010001001001001001001010010010010010010100100010100001010001001001010010010100100010100100100010010010010010010
100001001001001001100100100010010010010010100010010100010010010010010010010010010100001001100100100100100100001001001010010010100010100001001001
001010010010010010001001001001001001001001001001001001010010010010010010100010100010100001001001001100100100100010010100010100100100100010010010
100010010010010010010010010010010010001001001001001001001001001001001001010100001010010100010010010001001001010100100010010100100100100100100100
100001100001010010010010010001001001010010010010010010010010010010010010001010100001100010100100100100100100001001010001001001010010010001001001
010010010100010010100100100100100100001001001001001001001001001001001001100100010010010010100100100010010010001100010001001001100100100100100100
001100001100100100001001001001001001100100100100100100100100100100100100001100001001100010100100100001001001100001100100010010001001001100100100
100010100100001001100100100010010010100010100010010010010010010010010010100010100100001001100100100001001001010001001001001001010010010010010010
001010100010100001010010010010010010100100100100100100010010010010010010001001100001010010010010010100100100100010010010001001001001001010010010
100100100100100001100100100100100100010010010010010010001001001001001001001010100001010100001001001100100100001001001001001100010010010100100100
100100010100010001010010010001001001010010010100010010010010010010010010001100010001010001010010010100100100010001001001001010001001001010010010
010100010010010010100100100100100100001001001001001001010010010010010010010100100010100100010010010100100100100100010100100100100100100001001001
010001001100100100001001001010010010100010010010100010010010010010010010001001001001100100001001001100100100010001010010001001001001001100100100
001100001001100001010010010001001001100100100100100100100100100100100100100100001100100001100010010001001001100010001100100100001001001010010010
100100001001100100100100100100100100010010010010010010001001001001001001001010010010010100100100100100100100010001001001001001100100100001001001
001001100001010100100100100010010010010010100100010010010010010010010010100010010100010100100100100100100100001001001010001001010010010001001001
100010001001100010100100100001001001010010010010010010001001001001001001001010001001100010100100100100100100001001010001010001010010010001001001
010010010010100100010010010100100100001001001001001001001001001001001001010010100100100100100100100100100100010001100010100001100100100001001010
001010001010010001100100100100100100100100100100100100100100100100100100100010100100001001010010010100100100010001010010010100001001001001001001
001001010001100001100100100100100100100100100100100010100100100100100100100010010100100001010010010001001001100010001100010001001001001001001001
100001001100001001010010010001001001100100010100100100010010010010010010001001001001001001010010010100100100010001001010010001001001001100100100
100010010100010010100100100100100100001001001001001001001001001001001001001001100001010100100100100001001001010001001100010010100100100100100100
001001100100100001001001001010010010100010010010100010010010010010010010001001010001100001001001001100100100010001001010010001001001001100100100
010001100100100010010010010001001001010010010010010001100100100100100100010001100010100100010010010001001001001100100001100010010010010001001001
010001001001010001100100100100100100100100100100100100100100100100100100100001100100100001100100100001001001010010001010001001001001010100100100
100010010010001001010010010100100100010010010100010010010010010010010010100010010100001100001001001100100100001001010001001001001001001100100100
010001001100001100001001001010010010001001010001001010010010010010010010010001010010001100001001001010010010001010010001010100010010010010010010
001100100100001100010010010001001001100100010100100100100100100100100100010010100001001100001001001010010010010001010010010001010010010001001001
100010010010010010100100100100100100001001001001001001010010010010010010010010010010010001100100100010010010100001100100100100100100100010010010
001001100001001001100100100010010010010010010010010100001001001001001001100010100100010001100100100010010010010001001001010100100100100100100100
010001001010010010001001001001001001001010001010001001010010010010010010100001010010010010010010010001001001001100001001100010010010010010010010
010010010010001001001001001010010010001010010001001001010010010010010010100100010010010001010010010010010010001100010001100100010010010001001001
100100100010001100001001001010010010100100100100100100100100100100100100001001100001100100100100100100100100100001100100010001001001001010010010
001100100001010001010010010001001001100010010100010100010010010010010010100010010100010001001001001001001001001010001010001001001001001001001001
010010001010010001001001001010010010010100010010010010100100100100100100100100001100100010001001001010010010001100100001100100010010010001001001
100001100001001001010010010100100100010010100010010010010010010010010010010001100100001100100100100100100100010010100001010010010010010001001001
001001001100001010010010010100100100100100100100100100100100100100100100100010001010001100001001001100100100010001100010010010010010010010010010
100010100100001100100100100100100100100100100100100010010010010010010010001001100001001010100100100100100100010010010010010001010010010001001001
010100001100001001010010010001001001100100100100100010100100100100100100010100001001001010001001001001001001100010100100010010100100100001001001
010010010010010010001001001001001001001001001001001001001001001001001001010010001010100010010010010010010010010010100010010001010010010100100100
010001001001001001100100100100100100100100100100100100100100100100100100100010001100010001100100100001001001100001010100001100001001001100100100
010001001100001100100100100100100100100100010100100100100100100100100100010001001001010010010010010010010100100010001100010010001001001001001010
010001010100001010001001001001001001001001001001001001001001001001001001100001100010010100001001001001001001010100100010010100010010001100100100
100100001001001001100100100100100100010010010010010010001001001001001001010100001100001010100100100100100100001001001001010001100100100001001001
100010001001001001010010010010010010010010001010100010100100100100100100010001001100001010010010010010010010001100010001100010010010010001001001
100001001010001001010010010100100100010010010010010100010010010010010010100010010100001001001001001100100100010001001001001100001001010100100100
100100001100100001010010010001001001010100100100010010010010010010010010001100010001010001010010010010010010010010010010001001001001001010010010
100100010100100100100100100100100100010010010010010010001001001001001001001100010010100010001001001100100100001010001001001001001001001010010010
100100010100100001010010010001001001010010010010010100001001001001001001001100010001100001010010010100100100010010001001001100001001001100100100
010010010001010010100100100001001001001001001001001001001001001001001001100001010100010010010010010001001001010100001010010100100100100010010010
001100100001100100001001001010010010010010010010010010001001001001001001010100100001010010100100100001001001010001001001001001010010010100100100
001100010010010001100100100001001001001001001001001001001001001001001001010100001100010010010010010010010010010100001001100010010010010100100100
001010001001010010001001001001001001001001001001001001001001001001001001100010010100100001010010010001001001010010100010010100100100100001001001
001001001010100100001001001100100100010010010010010010010010010010010010100001010100010100001001001010010010010001001010001010100100100001001001
100100001100100100010010010010010010010100010010010010001001001001001001010100010001010100100100100001001001001010001001010001001001001010010010
010010010001100001100100100010010010001001001001001010010010010010010010001100100010100001010010010010010010001001100001100010010010010001001010
100100001100001100001001001010010010100100010100100010100100100100100100001100001001001100010010010100100100100010100100010001001001001010010010
100100100010001100100100100010010010010010010100010100010010010010010010100010100100010100100100100100100100001001001001001100100100100001001001
100100100001010010001001001010010010010010010010010010001001001001001001001010010010100010100100100010010010001001001010010001001001001001001001
001001010001010001001001001001001001100100100100100100100100100100100100100010010010100001001001001100100100100100100100010010001001001100100100
010010001001001001010010010100100100100100100100100100100100100100100100100010001010010001001001001100100100100001001010010100010010010010010010
010010010010010010100100100100100100001001001001001001010010010010010010010001010001010001100100100001001001100100100100100100100100100001001001
100010010010010010100100100100100100001001001001001001010010010010010010001001010010001010010010010010010010100010100100100010100100100001001001
100100100001100100010010010010010010100100100100100100100100100100100100100010100001100100001001001010010010100010001100001001100010100001001001
001001010001001001010010010100100100010010010010010010001001001001001001100010100100010100001001001001001001010001001001001001100100100001001001
001100100010010001001001001001001001010010010010001010100100100100100100100001100001010001001001001010010010001100010001001100100100100010010010
010010010010010010010010010010010010001001001001001001001001001001001001010001010010100010010010010010010010100100001100100010100100100010010010
100100010010100100100100100001001001010010010010010010001001001001001001001100010010100100100100100001001001001001001001001001001001001010010010
010001001100001100010010010001001001100100100100010010010010010010010010100010001100010010001001001001001001001010100010001001001001001001001001
010010010100001001100100100100100100010010001010010010100100100100100100010100100010010001010010010100100100001100100001100100010010010001001001
100001100100001001001001001001001001100010010010010010010010010010010010100001100010010010001001001100100100010001010001001001010010010100100100
100010010010010010100100100100100100001001001001001001001001001001001001001010010010001010100100100001001001100100001100100001100100100010010010
001001001100100001100100100100100100010010001010010010100100100100100100010001010010100001010010010010010010001100001001100100010010010001001001
100001001001010100010010010010010010100100010100100100100100100100100100001100010001010010001001001001001001010100010010001010100100100001001001
100100001100100100001001001001001001100100100100100100100100100100100100001100001010010100001001001001001001100010100100001010010010010010010010
010100100100100001001001001001001001010010100010010100010010010010010010010100010001100010001001001001001001001001001001001001100100100001001001
001001100001001001100100100100100100100100100100100100100100100100100100010001100100001001100100100010010010100010001010001001100100100001001001
010010010010100010010010010100100100001001001001001001010010010010010010010010010010010100010010010010010010001100010001100010100100100010010010
100100010100010010001001001100100100001001001001001001001001001001001001001100100001001001010010010010010010010100100100100010100100100010010010
100100100001100001001001001010010010010010010100100010010010010010010010001100100010100010010010010010010010010001001010010001001001001100100100
001010001100001001010010010010010010100010010100010100010010010010010010100010100100001001001001001001001001010001001001010001100100100001001001
001100100001001001100100100100100100100100100100100100100100100100100100100010001100010010100100100001001001100001100100010100001001001100100100
010100100100010100100100100100100100010010010010010100001001001001001001001010010001001100001001001100100100001001001010010010100100100001001001
001010001100100010001001001001001001010010100010010010010010010010010010001010001001100001100100100001001001001001010001010010001001001100100100
010010010010010010001001001010010010001001001001001001001001001001001001100010100010010001001001001010010010100001100100001001100100100010010010
010010001100001100010010010001001001001001001001001010001001001001001001100010001001001100010010010010010010001010100010100100010010010001001001
001010001010100010100100100010010010010010010010001001010010010010010010010001001010100010010010010010010010001100010001010001010010010010010010
010010010001010010100100100001001001001001001001001001001001001001001001010001100010010010010010010001001001010100010010010010100100100010010010
001001100001010010100100100100100100100100100100100100100100100100100100100001010100010100010010010001001001100100010100001010001001001100100100
100100001010010010001001001010010010010010010010001001100100100100100100100100001010001001010010010010010010010100100001010100010010010010010010
100001100001010010010010010001001001001001001001001001001001001001001001010001100100001001010010010001001001001100100010001010001001001010010010
100100001001100100001001001010010010100100100100100100010010010010010010001100100001100100001001001100100100010010010010010100001001001010010010
100001001010001001100100100100100100100100100100100100010010010010010010001001010001001001001001001100100100100010001010010100001001001100100100
100010010001001001010010010100100100010010010100010010010010010010010010010010010100010010010010010100100100010001001010001001001001001010010010
001010001001001010001001001001001001001001001001001001001001001001001001100001010100001001001001001100100100010100010100010010100100100010010010
010001001100001001100100100100100100100100100100100100100100100100100100010010001001010001001001001100100100100001100100001010100100100001001001
010001001010001001010010010100100100100100010100100100100100100100100100010001010010010100001001001100100100100010001100001001001001001100100100
010001100010001001100100100100100100010010001010010010100100100100100100010100100100001010100100100010010010001010001001100010010010010001001001
010010010100010010100100100100100100001001001001001001100100100100100100010100100010001100100100100010010010100100100100010100010010010001001001
001100001001100001010010010100100100100100100100100100100100100100100100010100001100100001100100100100100100100100100100001010010010010001001001
001001010001001100010010010010010010010010010010010010001001001001001001100001100100010010001001001010010010010001001001001001010010010001001001
010001001001001100100100100100100100100100100100100100100100100100100100100001010100010100010010010001001001100010001100001100001001001010010010
100001100001001001100100100100100100100100100100100100100100100100100100100001100100010001100100100001001001100001010100001100100100100001001001
100100001010010001001001001010010010100100100100100100100100100100100100001010001001010001100100100100100100100010100100001100100100100001001001
100100001010001001100100100001001001100100100100100100010010010010010010001100001001010001100100100100100100010010001010010010010010100001001001
001001001001001100010010010001001001010010010010100010010010010010010010100010001100010100100100100001001001010001010010001001001001001010010010
001001001001100001001001001001001001100100100100100100100100100100100100100010001100100001100100100001001001100010001010010100001001001001001001
010010010010010010010010010001001001001001001001001001010010010010010010010001100010100010010010010001001001100010100100100100100100100001001001
001001100001001010100100100001001001100100010100100100100100100100100100100001010100100001100100100001001001010010010010001100001001001100100100
100100100010100100010010010001001001100100100100100100010010010010010010001001100001100100001001001010010010010010100001010010001001001100100100
010010010001010010100100100001001001001001001001001001001001001001001001010010010100010010010010010001001001010100010010010010100100100010010010
001010001001001001100100100010010010010010010010100010010010010010010010100100001100010001001001001100100100001001010010001001001001001001001001
001100100010010010100100100001001001001001001001001001001001001001001001010010100010010100100100100010010010010010100001100010010010010010010010
010100001001001001010010010100100100100100100100100100100100100100100100100100010100010010100100100100100100010001010010001010010010010001001001
010100100001100100001001001001001001010100100010100010001001001010010010100100100100100100100100100001001001010100001010001010010010010100100100
010010010010010100010010010001001001001001001001001010001001001001001001100100100010100010010010010001001001010100001001100010100100100001001001
010010010010010010100100100001001001001001001001001001010010010010010010100100001100001100010010010001001010100010010100100100010010010001001010
001010010001010100001001001001001001001001001001001001001001001001001001010100010010010100001001001010010010010010010100010100100100100010010010
010100100001100100001001001010010010001010001001010010010010010010010010100100100100100010010010010010010010001100010001100010010010010001001001
001001100100001100001001001001001001010100010010010010001001001010010010100010010001001100100100100001001001010010010001001100010001010001001010
010001001010010100010010010001001001001001001001001001001001001001001001010010010100010100010010010010010010010010100010010100010010010010010010
001100100100010100100100100001001001001001010001001001001001001001001001100001100001100100010010010010010010010100100001100100010010010010010010
010100001100001100001001001001001001001010001010001001010010010010010010100100001010010100010010010010010010001100100001010010010010010010010010
001100100100100001001001001001001001100100100100100100100100100100100100100100100100010001001001001100100100100100010100001010010010010100100100
100100001100100100001001001001001001010010100010010010010010010010010010001010001001010100100100100001001001001001010001001001100100100001001001
010010010100001010100100100010010010001001001001001001100100100100100100010001010001001001100100100010010010100100001100010100100100100010010010
001100010001010100001001001010010010001001001001001001001001001001001001100100010010001100001001001001001001001010001010100100100100100001001001
100100100001001001001001001001001001010010010010100100010010010010010010100100100010010001001001001100100100001010100001001001001001001100100100
010010010010010010100100100100100100001001001001001001010010010010010010100100100010010100100100100010010010100100100100010100010010010010010010
001010001010001001001001001001001001010010100010010010010010010010010010100001010100010010100100100001001001001001010100001010001001001010010010
001001010001010010010010010010010010001001001001001001001001001001001001010001010001100010010010010100100100010100100001100001010010010100100100
001001001001001100010010010010010010010010010010010010001001001001001001100001010100010100100100100010010010010010001010001001001001001100100100
010001100100100100010010010010010010100100010100100100100100100100100100001001100001100100001001001100100100100001001100010001001001001100100100
001010001100100100010010100001001001100100100100100100010010010010010010001010001001100100010010010100100100100001100010001100001001001100100100
001001100001001001010010010100100100100100010100100010100100100100100100100010001100010010001001001100100100100001100100001100001001001010010010
001010001010001001100100100001001001001010001001010001010010010010010010100100001010001001100100100001001001001100100001100100010010010100100100
100001001010001001010010010001001001100100100100100010100100100100100100100001001100010001100100100001001001100001010010001001100100100010010010
001001001100100100001001001001001001100100100100100100100100100100100100100010001100100100001001001001001001100001001100100001010010010100100100
010010100100010001100100100100100100001001001001001001001001001001001001001100010001001001010010010100100100001010001001001010010010010100100100
001100100001010010010010010001001001100100100100100100100100100100100100100100001100100100100100100001001001010100001010010010010010010100100010
100001010001001010001001001010010010100010010100010100010010010010010010100010010010010001001001001001001001001010010010001100010010010001001001
010010001010010010001001001001001001001001001001001001001001001001001001010010001001010010010010010001001001010100001100010001010010010100100100
001001100010001100100100100100100100100010010100010010010010010010010010100001100100001001001001001100100100010001100001010010010010010100100100
001100001010010010010010010001001001001001001001001001001001001001001001100100010010010001100100100010010010100100010010001100010010010010010010
010001010010010010001001001001001001001001001001001001100100100100100100010001001001001010001001001100100100100100100100010100100100100001001001
001001001100100100001001001010010010100100100100100100100100100100100100001001010001001100001001001010010010100010010100010100010010010001001001
010010001100001010100100100100100100010010010010010010100100100100100100010001010001001001010010010010010010001100010001100100010010010010010010
010001010100010001010010010010010010100100100100100100100100100100100100001001010001001001001001001100100100100010001100010001001001001100100100
010010010010010010001001001001001001001001001001001001010010010010010010001100010010100100001001001010010010100100001100010010100100100001001001
001001100001001010010010010001001001100100010100100100100100100100100100100001100100001100100100100001001001100010001100001100001001001100100100
001100100100001100001001001001001001001001010001010010010010010010010010100100100010001100001001001001001001001100100001100100010010010010010010
010010010010010010010010010100100100001001001001001001010010010010010010010010100010001100010010010001001001100010100100100100100100100010010010
100010010100010010100100100100100100001001001001001001001001001001001001001001010001100010100100100001001001100010001100100001010010010010010010
010010010010010010001001001001001001001001001001001001001001001001001001100100010010010001001001001001001001001010010010001001100100100010010010
100010100010010010100100100001001001010001001010010010100100100100100100001010100010001001010010010001001010001001010001100100010010010010010010
001001100010001100001001001001001001010010010010010010100100100100100100100001100010001100001001001001001001001100100001100010100010010010001010
001010010001010010001001001001001001001001001001001001001001001001001001010100100010010010001001001010010010100010100100001001100100100001001001
100100100100100100100100100100100100010100010010010010001001001001001001001100100001100100001001001100100100010010001010001001001001001010010010
100001001100010001100100100100100100010100100010010100001001001001001001001001001001010001001001001100100100001100001010001010100100100001001001
100010010010010100100100100100100100001001001001001001010010010010010010001010010010001100100100100100100100001001100001100100010010010010010010
100100100001001001100100100100100100010010010010010100001001001001001001100100010100010001100100100010010010010001001001001010010010010100100100
001100010001001100010010010010010010100100100100100100100100100100100100010010100100001100100100100001001001010001100010001010100100100001001001
010010010010010010001001001001001001001001001001001001010010010010010010010100001010100010010010010010010010100100100100100100100100100001001001
100100001010010001001001001100100100010010100010010010001001001001001001001010100001010001001001001100100100010001001010001010001001001100100100
001100001001100100010010010001001001100100100100100100100100100100100100100010010100010100010010010001001001100010010100001001001001001010010010
100001001100100001010010010010010010100100100100100100100100100100100100001010001010010001010010010100100100100001100100001010001001001010010010
010100100010100010100100100100100100010010010010001001100100100100100100010100100010100010100100100100100100001100100001010100010010010001001001
001010001001100100001001001001001001010010100010010010010010010010010010001010001100010100100100100001001001001001010001010001010010010100100100
010001100010001010100100100100100100100100100100100100100100100100100100100001010010010001001001001100100100100100001010010001001001001100100100
010010010001010010100100100001001001001001001001001001001001001001001001010010100100100100001001001010010010100001100100010100010010010100100100
010010010010010010100100100001001001001001001001001001010010010010010010010010010100100001010010010010010010100010100100100100100100100001001001
010010010001010010100100100001001001001001001001001001001001001001001001010001001100100100001001001001001001010100001010010100100100100100100100
001001010001010100010010010010010010010100010010010010001001001001001001100001001100010100001001001010010010001010001001001010010010010001001001
001001010001001100010010010001001001100100100100100100100100100100100100010001100100001010100100100001001001100100010100010001001001001100100100
001100001100100100010010010001001001100100010100100100100100100100100100001010001001010010001001001001001001100001001100001100010010010001001001
100100100010100001010010010010010010010100010100010010010010010010010010001010100001010001001001001100100100001010010010001010001001001100100100
001001001001001100100100100010010010010010010010010100010010010010010010010001001100001001100100100010010001010001001010010100010010010010010010
001010010001010010001001001001001001001001001001001001001001001001001001100100100100001010010010010001001010010010100100010001100100100001001001
100010010010010010100100100010010010001001001001001001001001001001001001001010010010010010100100100010010010010010001100010001100100100010010010
001001100001001001010010010010010010100010100100100010010010010010010010100010100100001010001001001001001001010001100010001001001001001100100100
100001001100010010010010010001001001100100100100100100010010010010010010100001010001010100001001001100100100100001001010010010001001001010010010
001001010100010100001001001001001001010010010010010010100100100100100100100001001010001010001001001001001001001100100001100100010010010010010010
010100010010001001100100100001001001001001001001001010010010010010010010010100001001001001010010010001001001001010100001100100010010010001001001
001001001001001001010010010001001001100100010100100100100100100100100100100010010100001001010010010001001001100010100010001100001001001001001010
001010100001100100010010010100100100100100100100100010100100100100100100100100010100100100001001001100100100010001001010001010001001001010010010
010001100001001001010010010010010010100100100100100100100100100100100100100010100100001001100100100010010010010010010010001010100100100001001001
001001001100100010001001001001001001100100100100100100100100100100100100010001001001100001001001001100100100010001001010010001010010010100100100
001100001010010001010010010010010010010010100010010010001001001001001001001100001010100001100100100010010100001010010001001010100100100001001001
010010010010001010100100100100100100001001001001001001010010010010010010010010010100001001100100100010010010100010100100100100100100100001001001
010010010010010010100100100100100100001001001001001001010010010010010010010100100010001010100100100010010010100100100100010010010010010001001001
100010010100001010010010010100100100001001001001001001001001001001001001010010100001001100100100100100100100001010001100010001010010010001001001
010010010001010010001001001001001001001001001001001001010010010010010010010100100100100100001001001010010010100100001100100100100100100001001001
100001100100001001010010010100100100001001001001010010010010010010010010010001100010001001010010010010010010001010100001100100100100100100100100
100100100001001100100100100100100100100100010100100100100100100100100100001100100001001100001001001100100100100100001100010001010010010001001001
001010001100001010010010010100100100010010010001001001010010010010010010100100001010001100100100100010010010001100100001100100100100100010010010
100010010100100001010010010010010010100100100100100010100100100100100100010010010001010001001001001001001001010001010010100001100100100001001001
100010010010010010010010010001001001001001001001001001001001001001001001010010001100010010010010010001001001010010001100010100010010010010010010
010010100001001001010010010010010010010010010010100100001001001001001001100010100100001001100100100001001001010001010001100001010010010100100100
001001001001001001100100100100100100010010010010100010001001001010010010100010010100010001010010010100100100010001001010100100001001001010010010
010001001010001010010010010001001001001001001001001001001001001001001001010001001010100001100100100010010010010100100001100100100100010001001001
001001010010001100010010010100100100100100100100100100100100100100100100100010010100001100010010010001001001100001001100100001001001001010010010
010010010001010010100100100001001001001001001001001001001001001001001001010100100100100010010010010001001001010100001010100010100100100100100100
001001001010100100100100100100100100100100100100100100010010010010010010010001100001100010100100100100100100100001100010010001001001001010010010
010100100100100100010010010010010010100100100100100100100100100100100100001010100001100010100100100001001001100010100100100001001001001100100100
001010001001010100001001001001001001100100100100100100100100100100100100100010001100100100100100100001001001100010001100010010001001001100100100
100001010100001010010010010001001001001001001001001001001001001001001001010001010010001100100100100010010010010100001010001010001001001100100100
010010010001010010001001001010010010001001001001001001001001001001001001100010010100010010010010010010010010010001010010010001100100100010010010
001001001001001001001001001001001001010100010010010010010010010010010010100001001100010001100100100001001001001010001010001100010010010001001001
010010001001100010100100100001001001001001001001001001010010010010010010001010010100010001010010010010010010001010010001100010010010010010010010
010001100100001001001001001001001001100010100010010010010010010010010010100010010001001001010010001100100100010001100001001001001001001100100100
100100010100100010010010010010010010010010010010010010001001001001001001001010001001100001001001001100100100010001001001010001001001001100100100
001001001010001001010010010010010010100010010100010100010010010010010010100001001100001001001001001001001001010001001001010010100100100001001001
010010010010010010100100100100100100001001001001001001010010010010010010010100001001010010100100100001001001100100100100010010100100100001001001
010100100001100010100100100100100100010010010010010001100100100100100100001100100100100010100100100100100100001100100001100100100100100001001001
100100100001100001100100100100100100100100100100100010010010010010010010001100100001100010010010010100100100010010001010100001001001001001001001
100100001100001010010010010100100100010010100010010100001001001001001001010010100010010001001001001100100100001001010010001001001001001100100100
100100100001100001010010010010010010100100100100100100100100100100100100001100100010100001100100100100100100100010010100010100010010010001001001
100010100010001001100100100100100100010010010010010010100100100100100100001100010100001001100100100100100100001100010001100010010010010010010010
001100001001100100001001001001001001100100100100010100100100100100100100001100010001100010010010010001001001100100001100001001001001001010010010
001010010010010010001001001001001001001001001001001001001001001001001001100010010010100010010010010010010010010010010100100010010010010010010010
001001010001001100010010010100100100010100010010010010001001001001001001100001100100010100001001001010010010010001100010001001001001001010010010
001100001001100100001001001010010010010100010010010100001001001001001001001100001010001010001001001010010010001010001001001010100100100001001001
001100100010100100001001001010010010010010010010010100001001001001001001001010010001100100100100100001001001001001010001010010001001001100100100
010010100010100001001001001010010010100010010010100100010010010010010010001100010001100001001001001100100100010001001010010010001001001100100100
001001100010001100010010010010010010010010010010010010001001001001001001100001100010010010001001001010010010010010001010001001100100100001001001
100001100100001100001001001001001001100100010100100010100100100100100100010010100001001010001001001001001001010001001010001001010010010001001001
001010001001001001010010010001001001100100100100100100100100100100100100100001001100010001100100100001001001100010010100001010001001001100100100
001001001010100010010010010010010010010001010010010010100100100100100100001010001001100010010010010010010010001010010001100100010010010010010010
100100010010010100010010010100100100010010100010010100001001001001001001100010010100010010001001001100100100010001010001001001001001001001001001
100001100010100100100100100100100100010010010010010010001001001001001001001010100001100100001001001100100100001001001010001100010010010010010010
001001001100100001100100100010010010100010100100100010010010010010010010010001010010100001001001001100100100010001010010010010010010010100100100
010010010010010010001001001001001001001001001001001001001001001001001001010001010010100010001001001010010010100100001100100100100100100010010010
001001001100100001001001001001001001010010010010010010010010010010010010100001010010100001100100100001001001010010001001100100100100100001001001
010100010010010100100100100100100100010010010010010100100100100100100100010100010010010010100100100010010010001100100001010100001001001010010010
001010001010010100001001001001001001010010010010010100010010010010010010100010010100010010100100100001001001001001001010001100100100100010010010
010010100100100100010010010001001001010010010010010001100100100100100100010001100100010100010010010010010010001010100001100100010010010001001001
010001100010001100100100100100100100001001010001001010001001001001001001100001100010001001010010010010010010100100100100100100100100100010010010
010010010010010010100100100100100100001001001001001001010010010010010010100010010010010010100100100010010010100001100100010100100100100001001001
001100010010010100001001001001001001010010010010010010010010010010010010001010010001100010100100100001001001001001001001001001100100100001001001
100010010010010001100100100010010010001001001001001001001001001001001001001100001010010001010010010010010010100100010100010100100100100001001001
001001100001100001100100100100100100100100100100100100100100100100100100010001100100100100100100100001001001100100010100100100100100100001001001
100010010010010010100100100010010010001001001001001001001001001001001001001010010010100010100100100010010010010010010010100010100100100100100100
100100001001001010100100100001001001010010100010010010001001001001001001010001100001001100100100100001001001001010100001010010001001001100100100
010100100010100100100100100100100100010010100010100010010010010001001001001010100100100100100100100100100100010001010001100100100100100001001001
100010010100001010010010010100100100001001001001001001010010010010010010010100100001001100010010010010010010100010100100100001100100100010010010
001100001100001100001001001001001001100100100100100100100100100100100100010001010100001010100100010001001001100010100100100001001001001010010010
001001010001010010001001001001001001001001001001001001010010010010010010100001010100001010001001001010010010100010010100100100100100100010010010
100100100100100010001001001010010010100100100100100100100100100100100100001010100010100010100100100100100100100010010100010001100100100001001001
100100010010100001100100100100100100100100010100100100010010010010010010001100100001100001001001001100100100010001001010001010001001001100100100
100100010100100100001001001010010010100100010100100100100100100100100100001010001001010100001001001100100100100010001100010010001001001100100100
001010010001100001010010010010010010010010100010100010001001001001001001001100001010010001100100100001001001001001010001100010001001001010010010
100100100001010001100100100100100100100100100100100100100100100100100100100100100100010010100100100001001001100100100100010010001001001100100100
001001001001001010100100100010010010100100100100100100100100100100100100100001001100001010100100100001001001100010010100010001100100100001001001
100010010100010010100100100100100100001001001001001001001001001001001001001010010001100001100100100010010010010010010010100100100100100100100100
001001001100100100010010010010010010010010010010010010001001001001001001010001001001010100001001001001001001001001010010001010100100100001001001
100100001001010001001001001010010010100100010100100010100100100100100100001010010010100010100100100100100100100001100100010001100100100001001001
100001100001001001100100100010010010100100100010100100010010010010010010100010010100100001100100100001001001010100100001010001010010010100100100
100001010100010010010010010001001001001001001001001001100100100100100100010001001001100010010010010010010010100100100100100010010010010010010010
001001001100010001010010010010010010100010010100010100010010010010010010100100001010100001100100100001001001010010010001010100001001001010010010
100001010010100100100100100100100100010010010010100010001001001001001001100010010010010010001001001100100100001001001001010010001001001100100100
001001001001001100010010010001001001001010001010010010010010010010010010010001100010010100010010010010010010001100100001100100010010010010010010
001100001100100001010010010010010010010010100010010010001001001001001001001010001001010010001001001001001001001001010010001001100100100001001001
010010010010010010010010010010010010001001001001001001010010010010010010010100010010001001010010010001001001100100010100010010010010010001001001
001010100010001001100100100100100100100010010100010010010010010010010010100010100100001010001001001100100100001001010010010001010010010100100100
001001100100001001010010010100100100100100010100100100100100100010010010100001010010010010001001001001001001010010001010001010010010010001001001
001001100010100100010010010010010010010100100010010100001001001001001001010001100001100100001001001001001001001100010010001100100100100001001001
010010010010010010001001001010010010001001001001001001001001001001001001010010100100001010001001001100100100010100100100100010010010010010010010
100010100100100010010010010100100100100100100100100010100100100100100100100010100001001010001001001100100100100001100010001001010010010100100100
100010010100010010100100100100100100001001001001001001001001001001001001010010100001001010100100100010010010100001010100010001100100100010010010
010100001001010010001001001010010010001001001001001001001001001001001001010100010100010010010010010001001010010100100010001010010010010001001001
100010001010001001100100100010010010010010010010001010100100100100100100100001100010001010010010010100100100001100100001001100010010010010010010
100010010100010010100100100100100100001001001001001001001001001001001001001100010001001010100100100010010010010010001100100010100100100100100100
100010001010100100010010010100100100010010010010010100001001001001001001001100001001100100010010010001001001001010010001001001001001001100100100
100010010100001010001001001001001001001001001001001001100100100100100100001001010001001001010010010010010010100100100100100100100100100010010010
100100001100100001010010010001001001010100100100010010010010010010010010001100001001100001010010010100100100010010010010001001001001001010010010
001001010001001100100100100010010010010010010100010100010010010010010010100001010100001100100100100010010010010001100010001100010010010001001001
100010010100010010100100100010010010001001001001001001001001001001001001001001010010001010100100100010010010010010001100010001100100100001001001
010010010100010010100100100100100100001001001001001001001001001001001001010001010001010010100100100010010010100010001010010001100100100100100010
001001010001001100100100100010010010100100100100100100100100100100100100100010001100001010100100100001001001100001100100010010001001001100100100
100100001001100100100100100100100100100100100100100100010010010010010010001010001001100010100100100100100100100001001010010001100100100001001001
001001100100001100001001001001001001100100100100100100100100100100100100100010010010010100001001001001001001100001001100001010100100100001001001
010100100001100010010010010010010010001001001001001001010010010010010010100100001100100010100100100010010010001010001001100001010010010001001001
001001100001001001100100100010010010100100100100100100100100100100100100100001100010001001001001001010010010010001100010010001100100100001001001
100001001001001001100100100100100100100100100100100010100100100100100100100010001100001010010010100001001001100001010100100001001001001100100100
010001100100100001001001001010010010010010010010010100001001001001001001001001010010100010001001001100100100001010001010001001010001010100100100
001100001100001001100100100010010010100100100100100100100100100100100100100100001010010001001001001001001001010001100100001010001001001100100100
100100001010001010010010010001001001010010100010010001100100100100100100001100001001001001010010010010010010001100100001100010010010010001001001
001100100010001100100100100100100100100100010100100100100100100100100100100100010010001010001001001100100100010001001010010100010010001100100100
010010010010010010100100100001001001001001001001001001010010010010010010010100001010100001010010010001001001100010100100010100010010010010010010
010001010100001001100100100010010010010010001001010010010010010010010010010001010001001001100100100100100100001100010001100010100100100001001001
010001100010001100010010010001001001100100100100010010010010010010010010100001100100010010010010010001001001010010010010001001001001001100100100
100100100001100100001001001010010010010010010010100100001001001001001001001010010100001100100100100100100100001001010001010001001001001001001001
100100001100100100001001001010010010010100010010010010001001001001001001001100001001100010001001001100100100001010100001010001010010010001001010
001001010100001100010010010100100100100100010100100100100100100100100100100010010001001100001001001100100100100001001100001010001001001100100100
100001010001001010010010010100100100010010010010100100010010010010010010001010010100001010100100100100100100010001001001010100010010010001001001
100010010100010010100100100100100100001001001001001001100100100100100100010010010001001100010010010010010010100010100100100010100100100010010010
100100100001001001001001001001001001100010100100010010010010010010010010001100100001010001100100100001001001001010010001001001001001001100100100
001100010100100010100100100100100100010010010010010010100100100100100100100100100010010100010010010010010010001100010001100100001001001010010010
001001001001010001100100100100100100100010010100010010010010010010010010100001010010010001001001001100100100001010001001001001010010010100100100
010001001001100010100100100001001001010100010010010010001001001001001001001001001010100010100100100001001001001001100001010001001001001100100100
