16390
16697
316
101
103
117
16390
16663
16665
148
194
196
143
16414
16687
16701
179
195
205
209
211
225
227
255
271
16444
16476
16508
16510
16526
16540
16556
16572
16576
16604
16682
78
108
136
234
236
16507
16575
16621
16655
16669
16675
16677
16681
16685
16687
16693
157
181
265
267
269
273
283
285
287
289
299
303
311
313
16414
16687
16701
8
295
297
16448
16456
16472
16488
16502
16504
16
18
201
203
16448
16480
16496
16618
16634
16650
16682
3
7
19
21
23
35
49
51
16442
16452
16460
16484
16532
16538
16548
141
143
157
163
207
209
221
235
281
16507
16537
16603
16619
16633
16635
16637
16651
16653
16667
16669
16671
16677
16683
16685
16687
16699
16701
16703
14
129
145
161
16388
16390
16418
16432
16448
16464
294
49
51
63
65
81
97
99
113
129
145
161
16400
16462
16464
16480
16526
16540
16542
16556
16558
16604
16636
16640
16652
296
85
119
145
159
189
195
203
207
221
16395
16397
16411
16413
16427
16429
16445
16461
16475
16477
54
293
307
16554
16650
16485
30
253
16438
16468
16500
16528
16610
109
125
157
191
227
229
237
269
285
287
297
301
303
317
319
16404
16673
16689
38
279
16636
16441
16451
26
58
90
108
138
260
16400
16605
16621
16653
112
126
128
174
264
280
16454
16693
16695
77
83
91
95
99
107
109
111
119
123
139
143
145
147
149
159
161
173
181
16690
16395
16489
16505
314
27
43
16620
16652
16391
16393
16397
16403
16407
16409
16419
16425
121
137
167
171
183
185
189
199
201
207
209
211
217
223
225
227
233
235
239
241
249
16662
16407
310
1
11
17
16544
16574
16626
16648
16664
64
78
96
234
250
280
16402
16416
16418
16430
16448
16464
16478
16494
16540
158
279
281
295
311
16664
16389
16425
292
57
135
16492
16572
16590
16622
16693
312
83
117
16560
16645
16663
16679
16695
98
114
146
162
194
210
13
16469
16483
16485
16499
16505
16515
16517
16529
16547
16553
16555
16569
16579
16603
16619
24
38
102
134
168
182
196
202
16432
16464
16478
16542
16535
102
114
254
274
16692
16385
16397
16399
16413
16431
16445
84
86
136
152
154
202
210
16394
16410
16442
16458
16468
16474
16486
16490
16506
12
28
60
76
92
108
124
140
188
220
230
16698
16457
16489
312
121
137
16564
16580
16493
16525
16541
136
146
154
170
186
200
216
230
232
16650
16449
16465
290
73
89
105
121
137
153
169
16392
16639
16653
16669
16671
16687
36
38
52
68
82
84
98
100
118
130
132
164
182
16494
16508
16526
16542
16574
16588
16590
16604
16606
16622
16636
16638
16654
16668
16670
16686
16698
84
90
114
148
154
178
186
16569
16581
16583
16585
16591
16607
16609
16623
16633
16637
16639
78
148
152
16390
16406
16679
14
193
209
16418
16434
16453
318
1
11
13
15
17
29
31
75
16686
16415
16431
104
11
19
16466
16514
16546
16562
16607
172
11
27
43
16506
16591
16607
289
295
301
303
305
307
313
317
16678
16391
16397
16413
16417
16445
16463
228
7
9
25
16394
16627
16651
144
160
176
192
210
9
16480
16482
16498
16528
16530
16542
16544
16562
16574
16610
84
219
235
251
267
283
16432
16661
16675
0
291
319
16448
16462
16478
16492
16494
16522
16526
16528
16544
16556
16588
16670
56
281
309
16620
16636
16652
16469
270
1
3
17
16424
16679
16695
16697
24
161
177
241
257
16566
16425
16441
16
34
70
82
116
16646
16455
266
274
282
284
290
298
300
16566
16582
16598
16385
16387
318
13
61
16564
16653
16699
16701
16703
6
231
16438
16444
16478
16540
16542
16574
94
269
303
16510
16487
16691
20
110
184
16640
16417
216
230
258
264
266
282
16676
16439
118
309
311
16599
16615
16633
16647
16649
16655
16661
16665
16679
16681
16693
16695
16697
62
305
319
16482
16643
306
39
41
87
16456
16655
16669
16671
16701
16703
144
201
203
235
16610
16491
16509
288
45
59
16700
16467
16477
16479
16481
16493
16495
16509
310
153
183
16644
16662
16666
16676
16678
16692
16698
248
89
16402
16430
16446
16480
16486
16494
16512
16526
16528
16544
16560
16576
16592
160
3
11
16385
16387
16389
16399
16401
16403
16415
16417
16419
16431
16433
122
31
47
63
16398
16432
16446
16476
16480
16526
16528
16542
16574
16576
16588
16590
16622
16638
78
41
283
16386
16543
16559
16573
12
271
285
287
16578
16417
16429
0
16
32
48
90
92
96
112
160
16406
16585
16601
42
35
67
83
237
253
269
285
307
317
16505
16633
16649
16681
170
27
16672
16399
16439
16455
16551
122
278
280
296
308
312
16456
16500
16504
16610
16682
16698
300
119
149
165
16394
16550
16552
16566
16580
16614
16630
296
5
173
16410
16605
16623
266
280
296
298
304
312
314
318
16430
16583
16653
108
140
289
305
49155
49163
49165
49167
49169
49175
49177
49179
49195
49203
49205
49207
49209
49211
49213
49225
49227
49235
49239
49241
49243
49251
49253
49263
49265
49267
49273
49277
49281
49289
49293
49303
49313
49317
49321
49323
49331
49343
49347
49361
49377
49379
49381
49391
49401
49403
49405
49417
49419
49423
49431
49439
49451
49453
49457
49461
49463
49465
49467
49469
49471
32848
33086
32935
49153
49155
49157
49159
49161
49163
49169
49171
49177
49181
49183
49191
49193
49197
49199
49201
49207
49209
49211
49213
49215
49217
49219
49221
49225
49235
49239
49241
49243
49245
49247
49249
49253
49255
49257
49259
49263
49265
49267
49271
49273
49277
49279
49281
49283
49287
49291
49297
49303
49305
49307
49309
49311
49313
49317
49321
49323
49327
49331
49335
49337
49341
49349
49355
49363
49369
49373
49375
49377
49381
49383
49385
49389
49391
49395
49399
49401
49403
49411
49415
49417
49419
49421
49423
49427
49429
49431
49433
49441
49447
49449
49451
49453
49455
49459
49463
49467
49469
49471
32912
32843
32861
32949
49306
49408
49297
49307
32769
32773
32775
32779
32783
32793
32799
32801
32803
32805
32807
32809
32811
32813
32815
32821
32823
32825
32831
32839
32845
32847
32851
32857
32861
32869
32871
32873
32879
32881
32885
32889
32891
32893
32895
32915
32917
32919
32923
32929
32933
32937
32939
32941
32945
32947
32951
32953
32955
32957
32959
32967
32977
32979
32981
32983
32985
32991
32993
32999
33001
33003
33007
33009
33013
33019
33025
33031
33033
33037
33039
33043
33047
33049
33055
33061
33063
33075
33079
33083
33085
33087
49310
49456
32786
32842
32870
33065
49208
49384
49446
49379
33076
32949
49446
33078
32839
49154
49360
49175
49383
32964
32965
49166
49280
49397
32812
33008
33009
49440
49271
32769
32773
32775
32777
32779
32781
32783
32791
32793
32801
32805
32807
32809
32815
32817
32823
32825
32835
32849
32853
32855
32857
32859
32861
32863
32867
32869
32871
32877
32883
32891
32897
32899
32903
32905
32907
32909
32911
32917
32919
32923
32925
32927
32935
32937
32943
32947
32953
32959
32961
32965
32975
32983
32985
32995
32997
32999
33003
33007
33009
33011
33015
33017
33019
33023
33027
33039
33045
33047
33049
33057
33061
33069
33071
33079
33083
33085
49155
49157
49159
49161
49165
49167
49171
49175
49177
49185
49191
49193
49197
49199
49205
49207
49213
49215
49219
49223
49231
49235
49237
49239
49249
49251
49253
49255
49257
49259
49261
49263
49265
49267
49269
49275
49277
49281
49285
49295
49301
49305
49307
49309
49317
49327
49329
49335
49339
49341
49343
49345
49347
49349
49355
49357
49365
49369
49373
49375
49379
49381
49383
49387
49395
49401
49405
49409
49411
49413
49421
49423
49427
49437
49439
49447
49449
49455
49457
49463
49467
49471
32826
32932
33032
32941
33017
49157
49161
49167
49175
49187
49191
49193
49199
49201
49205
49207
49213
49219
49223
49225
49233
49235
49243
49249
49253
49255
49261
49267
49269
49271
49273
49277
49289
49291
49305
49315
49319
49327
49329
49335
49337
49339
49341
49351
49355
49359
49361
49369
49373
49377
49379
49387
49393
49403
49413
49417
49419
49425
49427
49435
49439
49461
49465
49467
49469
32822
32968
33052
49460
49425
33030
32975
33009
49300
49454
49159
49285
32842
33052
32869
33021
33059
49288
49462
49393
32792
32814
32903
49154
49160
49422
32780
32856
49153
49155
49157
49159
49161
49163
49165
49167
49169
49175
49181
49187
49195
49197
49201
49203
49215
49219
49223
49225
49229
49231
49233
49237
49247
49249
49255
49257
49269
49273
49277
49279
49281
49283
49289
49291
49293
49303
49305
49307
49313
49315
49319
49321
49325
49327
49329
49331
49333
49335
49341
49345
49349
49351
49355
49357
49359
49361
49365
49369
49377
49383
49385
49389
49391
49393
49413
49417
49423
49425
49427
49429
49431
49433
49435
49439
49445
49451
49455
49459
49467
49469
32906
33078
32927
32989
49192
49206
49308
49394
49414
32768
32990
33014
33084
49184
49216
49213
49243
49259
32784
32806
32970
49182
49184
49239
49315
32800
32946
32992
32981
49166
49306
49340
49346
49414
32780
32908
33002
32817
32977
49190
49374
49392
49446
49456
33036
33074
32783
49166
49264
32806
32971
49208
49256
49384
49217
49249
49345
49359
32880
32982
33065
49222
49226
49418
49442
49462
32818
32856
33030
33058
32915
49154
49232
49456
49470
33068
33023
49164
49166
49178
49210
49272
49319
32802
32870
33016
33051
49280
49366
49416
49167
49247
49391
32769
32771
32781
32783
32787
32791
32793
32795
32799
32801
32805
32807
32823
32827
32829
32833
32845
32849
32851
32859
32867
32869
32873
32877
32889
32891
32893
32895
32901
32903
32909
32919
32933
32935
32937
32951
32953
32955
32959
32975
32989
32995
32997
32999
33005
33011
33015
33019
33023
33025
33029
33031
33033
33045
33051
33055
33057
33065
33077
33083
33087
49438
49425
32770
33030
32837
49240
49420
49446
49471
32782
32992
32871
32885
49166
49210
49354
49431
32782
32876
33018
32961
49155
49157
49159
49161
49163
49167
49171
49175
49177
49179
49183
49185
49189
49191
49195
49199
49201
49207
49211
49215
49217
49219
49227
49231
49235
49239
49241
49243
49245
49249
49251
49253
49257
49259
49263
49269
49271
49279
49281
49283
49287
49289
49291
49295
49297
49301
49303
49305
49309
49311
49313
49317
49319
49321
49327
49329
49331
49333
49335
49337
49345
49351
49355
49359
49365
49371
49373
49375
49377
49393
49395
49403
49409
49413
49415
49421
49423
49433
49435
49437
49443
49449
49451
49455
49457
49463
49469
49471
32774
32804
32982
32913
49466
49383
49395
32932
33013
49154
49382
32782
32978
33038
33072
32937
49256
49426
49442
49201
49345
32782
32910
33006
33070
32775
32951
33079
49162
49196
49256
49294
49185
49361
32773
32777
32781
32783
32791
32793
32795
32797
32805
32807
32815
32821
32825
32831
32833
32841
32845
32851
32859
32865
32871
32873
32875
32877
32883
32887
32889
32891
32893
32895
32905
32907
32913
32917
32919
32921
32923
32929
32943
32945
32947
32949
32951
32961
32967
32969
32971
32973
32981
32985
32991
33005
33009
33013
33015
33021
33023
33037
33049
33051
33053
33055
33057
33063
33071
33073
33077
33079
33081
33085
33087
49246
49330
49424
49454
49383
32770
33074
32803
49192
49416
49403
32798
32990
32839
32917
32997
49153
49155
49157
49159
49161
49163
49165
49167
49169
49177
49183
49187
49189
49191
49193
49195
49197
49199
49201
49203
49207
49215
49219
49225
49227
49229
49231
49233
49235
49239
49243
49245
49247
49253
49255
49257
49259
49261
49271
49273
49275
49279
49281
49287
49291
49293
49301
49303
49311
49315
49317
49319
49321
49323
49325
49327
49329
49335
49341
49345
49347
49351
49353
49357
49359
49361
49371
49373
49377
49383
49389
49391
49395
49405
49407
49409
49411
49415
49417
49419
49421
49423
49427
49429
49431
49433
49437
49441
49449
49451
49453
49457
49459
49463
49467
49469
49471
32792
32824
33016
33048
33078
49186
49190
49364
49432
49249
32796
32818
32986
33030
49398
49375
32788
32796
33030
33038
49211
49267
32942
32958
33030
32913
32927
49161
49163
49167
49171
49181
49189
49191
49197
49203
49209
49211
49215
49229
49233
49237
49239
49249
49251
49253
49255
49259
49267
49271
49279
49281
49289
49297
49299
49303
49309
49317
49319
49321
49327
49335
49345
49355
49363
49367
49373
49375
49379
49383
49387
49389
49393
49397
49401
49409
49411
49415
49425
49429
49433
49441
49443
49447
49451
49453
49467
49471
32930
33024
49157
49159
49161
49163
49167
49173
49185
49187
49191
49197
49205
49207
49217
49225
49229
49239
49243
49259
49263
49267
49269
49271
49273
49275
49277
49283
49291
49301
49315
49317
49319
49335
49337
49339
49341
49343
49351
49353
49365
49371
49385
49387
49399
49413
49415
49419
49425
49427
49437
49439
49443
49449
49451
49455
49457
49465
49471
32814
32820
32954
33034
32869
33029
49166
49226
49304
49374
32826
32910
33066
32835
49330
49462
49466
32798
32928
32805
49153
49155
49159
49167
49175
49177
49179
49183
49185
49191
49197
49219
49221
49227
49231
49233
49235
49241
49251
49253
49259
49267
49271
49273
49275
49279
49283
49285
49293
49295
49301
49305
49307
49317
49325
49329
49335
49337
49345
49349
49355
49359
49361
49365
49375
49377
49383
49387
49389
49395
49421
49423
49427
49433
49437
49445
49453
49457
49461
49469
32872
32942
32941
49380
49381
32774
33044
32793
49216
49436
32786
33062
33045
49190
49424
49275
32808
32822
32842
33004
33030
49204
49346
49460
49359
32808
32880
33042
49153
49155
49157
49159
49161
49165
49167
49169
49171
49175
49177
49181
49183
49185
49187
49191
49193
49195
49197
49199
49201
49205
49207
49209
49213
49215
49217
49219
49225
49229
49231
49233
49237
49239
49241
49243
49245
49247
49249
49253
49255
49259
49261
49263
49265
49267
49271
49273
49275
49277
49279
49281
49285
49287
49293
49295
49297
49299
49307
49311
49317
49319
49321
49323
49325
49327
49329
49335
49339
49341
49343
49345
49347
49351
49353
49355
49357
49359
49363
49367
49369
49371
49373
49375
49379
49383
49387
49389
49391
49399
49403
49405
49407
49415
49417
49423
49425
49431
49435
49437
49439
49443
49447
49449
49453
49455
49467
49469
49471
32769
32771
32773
32775
32777
32787
32793
32795
32799
32803
32805
32807
32823
32827
32831
32839
32849
32857
32861
32875
32883
32887
32891
32895
32897
32899
32903
32907
32913
32915
32917
32923
32925
32927
32933
32943
32945
32947
32951
32955
32957
32967
32983
32985
32987
32989
32999
33001
33007
33009
33011
33013
33025
33027
33037
33049
33059
33063
33067
33071
33073
33075
33079
33083
33085
49152
49280
49362
49448
32806
32898
32946
33014
49210
49450
49363
32934
32935
49164
49416
49433
32798
32958
33086
33021
49154
49184
49255
49467
32786
32846
32994
33010
33042
33086
49184
49366
49440
49470
32776
33058
49160
49216
49260
49400
49383
32920
33084
32905
49154
49182
49223
32938
32940
33004
32935
49154
49224
49360
49295
32918
32978
33013
49168
49190
49348
49466
32812
32822
32954
33050
32835
49166
49210
49354
49153
49431
32810
32898
33030
32917
49176
49224
49356
49376
49455
32770
32930
33030
32927
32987
49153
49157
49163
49165
49169
49175
49177
49183
49191
49195
49205
49207
49213
49215
49223
49225
49227
49231
49233
49235
49241
49249
49251
49255
49259
49265
49267
49273
49279
49281
49283
49285
49291
49293
49301
49309
49317
49319
49333
49339
49347
49351
49357
49359
49363
49369
49371
49377
49379
49381
49385
49389
49399
49403
49415
49417
49423
49429
49431
49435
49437
49439
49449
49453
49455
49459
49467
49469
49471
32798
32844
32990
32949
49366
49456
49253
32956
33040
33078
49180
49418
49345
32769
32771
32773
32775
32783
32793
32801
32807
32809
32821
32823
32829
32843
32855
32861
32863
32867
32897
32901
32909
32915
32923
32931
32933
32939
32943
32957
32967
32971
32979
32997
33001
33005
33007
33011
33015
33021
33031
33037
33039
33043
33049
33055
33061
33073
33077
33079
33081
33083
33085
49256
49258
49392
49313
32776
32924
33062
33071
49230
49424
49259
49365
32794
32954
32982
33016
32961
49176
49458
32782
32872
32976
33014
33030
32869
49282
49286
49466
49465
32914
32962
32773
32821
32869
49153
49155
49157
49159
49161
49163
49165
49167
49169
49171
49175
49177
49183
49185
49191
49195
49197
49201
49203
49205
49207
49209
49211
49213
49219
49225
49231
49235
49237
49239
49243
49245
49247
49253
49259
49261
49265
49267
49271
49279
49281
49283
49285
49289
49293
49295
49299
49301
49303
49307
49309
49315
49317
49319
49321
49327
49329
49331
49333
49337
49343
49351
49353
49355
49357
49361
49365
49373
49375
49377
49383
49385
49389
49391
49393
49399
49403
49419
49421
49423
49425
49437
49439
49441
49449
49453
49457
49463
49465
49467
49469
49471
32778
32780
32814
32894
32970
32807
32919
33079
49342
49325
49397
32950
33015
49168
49163
32773
32775
32779
32781
32787
32791
32799
32801
32803
32807
32811
32815
32817
32819
32821
32823
32825
32827
32837
32843
32851
32857
32861
32863
32865
32867
32869
32873
32879
32895
32903
32905
32907
32913
32917
32925
32927
32933
32937
32941
32943
32945
32955
32957
32959
32967
32969
32973
32977
32979
32989
32991
32993
32997
32999
33005
33011
33023
33029
33035
33041
33043
33045
33049
33051
33055
33059
33069
33071
33073
33077
33083
33085
33087
49256
49259
49307
49471
32930
33078
49153
49155
49157
49159
49161
49167
49171
49181
49183
49187
49189
49191
49195
49201
49205
49213
49215
49219
49225
49227
49233
49235
49241
49245
49247
49251
49263
49267
49283
49285
49301
49315
49319
49323
49325
49333
49339
49351
49355
49357
49359
49361
49363
49365
49369
49379
49383
49385
49393
49399
49403
49407
49411
49413
49415
49421
49427
49431
49435
49437
49439
49441
49443
49451
49455
49457
49459
49463
49465
49467
49471
32834
33052
49230
49404
49434
49391
32806
32860
32942
32946
33062
33084
16446
16578
284
16482
90
128
16498
16584
226
16390
16512
194
16676
16385
16387
16391
16393
16395
16397
16399
16403
16407
16409
16415
16417
16423
16425
16431
16433
16447
16449
16451
16453
16467
16471
16473
16477
16481
16483
16487
16489
16493
16505
16509
16511
16513
16519
16521
16523
16531
16535
16537
16539
16541
16543
16545
16551
16553
16555
16559
16561
16567
16569
16573
16575
16579
16583
16587
16589
16601
16603
16607
16615
16617
16625
16631
16637
16639
16641
16643
16647
16649
16653
16655
16663
16669
16671
16673
16687
16699
16703
288
16385
16387
16393
16395
16399
16401
16403
16405
16411
16415
16419
16421
16423
16427
16431
16433
16443
16447
16449
16453
16455
16457
16461
16463
16469
16471
16473
16475
16479
16481
16485
16491
16493
16495
16497
16503
16511
16515
16519
16521
16525
16529
16531
16535
16537
16539
16541
16543
16547
16549
16551
16553
16557
16559
16561
16569
16573
16575
16579
16581
16583
16587
16589
16603
16605
16609
16615
16623
16625
16627
16637
16641
16645
16651
16655
16663
16665
16669
16671
16673
16679
16681
16691
16701
16703
96
16387
16389
16393
16395
16399
16401
16403
16405
16409
16415
16417
16423
16425
16431
16439
16443
16447
16451
16455
16457
16459
16463
16465
16471
16473
16477
16479
16481
16483
16485
16489
16491
16493
16497
16499
16505
16507
16509
16511
16513
16517
16519
16521
16525
16535
16539
16541
16543
16545
16547
16551
16553
16557
16559
16561
16565
16567
16569
16571
16573
16575
16581
16585
16587
16589
16591
16593
16595
16601
16609
16615
16617
16621
16623
16627
16631
16635
16639
16641
16645
16647
16649
16653
16655
16659
16663
16669
16671
16673
16675
16681
16683
16687
16697
16701
16703
18
28
16385
16387
16391
16393
16397
16399
16401
16407
16409
16411
16413
16415
16417
16419
16423
16425
16427
16429
16431
16433
16435
16439
16443
16445
16447
16449
16451
16455
16457
16459
16461
16463
16465
16467
16471
16475
16477
16479
16481
16483
16487
16489
16491
16493
16495
16497
16499
16503
16505
16507
16509
16511
16513
16519
16521
16525
16527
16529
16531
16535
16537
16539
16541
16543
16545
16551
16553
16555
16557
16559
16561
16563
16567
16569
16571
16573
16575
16577
16579
16583
16585
16587
16589
16591
16593
16599
16601
16603
16605
16607
16609
16611
16615
16617
16619
16621
16623
16625
16627
16631
16635
16637
16639
16641
16647
16649
16651
16653
16655
16657
16659
16663
16665
16669
16671
16673
16683
16685
16687
16689
16695
16697
16701
16703
270
16686
214
16402
16408
80
272
16468
16385
16387
16397
16399
16409
16411
16415
16423
16433
16435
16439
16447
16455
16467
16471
16477
16483
16495
16509
16511
16519
16525
16527
16553
16555
16559
16569
16587
16601
16603
16609
16615
16631
16635
16639
16649
16657
16673
16687
16689
226
230
16524
50
16440
16566
78
108
16578
16385
16387
16391
16393
16397
16399
16401
16407
16409
16413
16415
16423
16425
16427
16431
16433
16435
16437
16439
16443
16445
16447
16449
16451
16455
16459
16461
16463
16465
16471
16473
16475
16477
16479
16483
16491
16493
16495
16499
16503
16505
16509
16513
16527
16529
16531
16533
16535
16537
16541
16543
16545
16547
16549
16553
16557
16559
16561
16563
16579
16583
16585
16587
16589
16591
16593
16595
16597
16599
16603
16605
16607
16609
16611
16617
16621
16623
16625
16627
16631
16637
16641
16645
16651
16655
16663
16667
16669
16671
16681
16687
16691
16695
16699
16701
16703
260
1
3
31
39
55
77
83
85
95
97
109
115
121
143
179
289
313
319
16385
16387
16389
16391
16393
16395
16397
16403
16405
16407
16409
16413
16415
16417
16421
16423
16425
16429
16431
16433
16439
16441
16443
16445
16447
16449
16455
16461
16463
16471
16481
16483
16485
16487
16489
16491
16493
16495
16497
16499
16501
16503
16505
16507
16511
16513
16523
16525
16529
16535
16537
16539
16541
16545
16547
16549
16551
16555
16557
16559
16561
16569
16571
16573
16575
16577
16583
16585
16587
16589
16591
16593
16597
16599
16601
16605
16607
16609
16617
16623
16625
16631
16641
16647
16653
16663
16665
16669
16671
16673
16679
16681
16683
16689
16693
16695
16699
16701
16703
214
16516
16403
16409
16435
16483
16487
16519
16545
16589
16605
16607
16703
16596
16387
16397
16399
16409
16413
16417
16429
16431
16435
16455
16465
16467
16471
16477
16479
16483
16487
16491
16493
16497
16503
16505
16509
16511
16519
16535
16537
16545
16559
16563
16567
16573
16583
16589
16599
16607
16609
16619
16621
16623
16625
16637
16641
16649
16653
16657
16669
16687
16697
16701
198
16490
268
16387
16389
16391
16393
16397
16399
16401
16403
16407
16411
16415
16417
16419
16421
16423
16425
16427
16429
16431
16433
16437
16439
16441
16445
16449
16451
16453
16457
16459
16461
16467
16469
16471
16473
16475
16479
16481
16483
16487
16491
16497
16503
16509
16513
16515
16519
16525
16527
16529
16531
16533
16535
16539
16541
16543
16545
16547
16553
16555
16557
16563
16575
16577
16579
16589
16593
16597
16603
16605
16609
16615
16617
16621
16627
16635
16641
16645
16653
16657
16663
16667
16671
16673
16675
16689
16691
16695
16701
166
16554
270
16452
16654
8
284
16480
16532
16492
1
5
7
9
11
15
17
21
23
35
37
39
41
43
47
53
55
57
59
63
65
73
87
91
95
97
99
103
105
111
113
115
119
123
125
131
133
135
137
145
147
153
157
159
163
165
169
171
175
177
181
183
187
191
193
195
197
207
213
217
219
223
231
237
241
245
247
253
257
263
267
269
279
281
287
291
305
309
311
315
317
16448
16530
164
15
19
25
33
35
51
67
99
103
137
169
179
183
193
205
207
255
259
265
295
301
317
319
16385
16387
16389
16391
16395
16397
16399
16401
16409
16413
16417
16423
16425
16427
16429
16431
16433
16435
16437
16443
16449
16451
16457
16461
16465
16467
16469
16471
16475
16477
16483
16485
16487
16491
16493
16497
16507
16509
16513
16515
16517
16519
16523
16525
16527
16529
16533
16535
16539
16545
16547
16551
16553
16557
16563
16565
16567
16569
16571
16573
16581
16583
16587
16589
16591
16593
16595
16597
16601
16605
16611
16613
16615
16617
16623
16627
16629
16631
16633
16637
16641
16645
16651
16653
16657
16663
16667
16671
16675
16679
16681
16689
16693
16703
44
316
16504
16630
1
3
5
9
13
15
19
25
33
37
39
41
43
51
53
57
59
61
63
67
71
79
81
83
85
95
97
99
101
103
107
109
111
113
115
117
119
121
125
127
129
133
135
137
141
147
149
157
159
163
165
167
169
173
175
177
181
189
191
193
195
197
205
209
213
217
221
227
229
235
237
243
247
251
253
257
261
269
271
273
281
301
305
309
315
317
16390
34
142
16498
3
5
7
9
13
15
17
25
27
29
31
33
35
37
45
47
49
55
57
61
63
65
67
75
77
79
83
85
87
91
93
95
97
99
103
105
107
109
111
113
115
117
119
121
125
127
137
139
141
143
151
155
157
161
165
167
173
175
177
183
185
189
191
199
201
203
205
207
211
213
217
219
221
223
225
231
235
239
247
251
253
255
257
263
267
271
275
281
283
285
287
289
291
303
305
309
313
317
319
16392
162
16410
92
16620
150
16450
3
7
9
11
15
17
19
25
27
29
37
47
49
51
59
63
65
67
71
73
75
77
81
89
91
93
97
101
107
109
111
117
119
121
123
125
139
145
149
151
153
155
157
163
165
167
169
175
177
187
193
197
203
205
209
213
217
219
221
229
231
235
237
239
241
243
245
251
265
267
269
273
279
283
285
287
293
295
301
305
309
317
16596
16387
16395
16397
16399
16403
16407
16409
16417
16423
16429
16431
16435
16439
16441
16443
16445
16447
16451
16455
16461
16467
16471
16477
16479
16481
16483
16487
16491
16493
16495
16503
16519
16521
16525
16527
16535
16539
16543
16545
16555
16561
16563
16567
16569
16573
16575
16579
16589
16591
16615
16617
16619
16621
16627
16635
16637
16639
16641
16647
16649
16653
16655
16657
16659
16665
16685
16689
16697
16701
16703
242
16492
16576
3
5
7
9
11
13
15
17
19
23
25
27
29
31
35
37
39
41
45
47
49
53
57
59
61
65
67
69
73
75
77
79
83
85
87
91
93
95
97
99
101
103
107
109
111
113
115
117
119
123
125
127
129
133
135
141
143
145
147
149
151
155
157
161
163
169
173
177
181
185
187
189
191
193
197
199
201
203
207
209
211
213
215
217
219
223
229
231
235
237
239
247
249
251
253
255
257
261
265
269
273
275
277
279
283
285
287
289
293
295
301
303
319
16430
138
16385
16387
16391
16393
16395
16397
16401
16403
16407
16409
16411
16413
16415
16417
16419
16423
16425
16427
16429
16431
16433
16435
16439
16441
16443
16445
16449
16457
16459
16461
16463
16467
16471
16473
16475
16477
16479
16481
16483
16487
16489
16491
16493
16495
16497
16503
16505
16507
16509
16513
16515
16519
16521
16523
16525
16527
16529
16535
16537
16539
16541
16543
16545
16551
16553
16561
16563
16569
16571
16573
16575
16577
16579
16583
16585
16587
16589
16591
16593
16595
16599
16601
16603
16605
16607
16609
16619
16621
16625
16627
16631
16633
16637
16639
16641
16643
16647
16649
16651
16653
16655
16657
16659
16661
16663
16669
16671
16673
16679
16681
16683
16685
16687
16691
16695
16699
16703
1
3
7
9
11
13
15
17
19
23
25
27
29
31
33
35
39
41
43
45
47
49
51
55
57
59
61
63
65
67
71
73
75
77
79
81
83
85
87
89
91
95
97
99
103
105
107
109
111
113
115
119
121
123
125
127
129
135
137
139
141
143
145
147
151
153
155
157
159
161
163
167
169
171
173
175
177
179
183
185
187
189
191
193
195
201
203
205
207
209
211
215
217
219
221
223
225
227
233
235
237
241
243
247
249
251
253
255
257
259
263
265
267
269
271
273
275
279
281
283
285
287
289
297
299
301
303
305
311
313
315
317
319
16387
16389
16391
16393
16395
16397
16399
16401
16403
16407
16409
16415
16417
16421
16423
16425
16427
16429
16431
16433
16435
16437
16439
16441
16443
16447
16449
16451
16453
16455
16457
16459
16463
16465
16467
16471
16475
16477
16479
16481
16483
16487
16489
16491
16493
16495
16497
16499
16503
16511
16513
16515
16519
16525
16527
16533
16535
16539
16541
16543
16545
16549
16553
16555
16557
16559
16563
16567
16569
16571
16573
16575
16577
16579
16583
16589
16593
16599
16605
16609
16617
16619
16623
16627
16629
16631
16637
16641
16655
16657
16663
16665
16669
16671
16681
16683
16687
16689
16691
16693
16695
16697
16701
16703
1
3
7
9
13
15
17
19
23
25
27
29
31
33
35
39
41
43
45
47
49
51
55
57
59
61
63
65
67
71
73
75
77
79
81
83
87
89
91
93
95
97
99
103
105
107
109
111
113
115
119
121
123
125
127
129
131
135
137
139
141
143
145
147
151
153
155
157
159
161
163
167
169
171
173
175
177
179
183
185
187
189
191
193
195
199
201
203
205
207
209
211
215
217
219
221
223
225
227
231
233
235
237
239
241
243
247
249
251
253
255
257
259
263
265
267
269
271
273
275
279
281
283
285
287
289
291
295
297
299
301
303
305
307
311
313
315
317
319
16412
16452
16558
202
16418
16490
112
300
16662
130
272
16385
16391
16393
16395
16399
16405
16407
16409
16411
16415
16419
16421
16423
16427
16431
16433
16435
16439
16441
16443
16447
16457
16467
16471
16479
16483
16487
16491
16493
16495
16497
16499
16503
16507
16511
16513
16519
16523
16525
16533
16535
16539
16541
16545
16547
16549
16551
16555
16561
16567
16569
16571
16575
16579
16581
16589
16597
16599
16605
16607
16609
16613
16615
16621
16623
16633
16635
16639
16643
16653
16657
16663
16669
16671
16675
16677
16679
16683
16685
16687
16689
16693
16701
58
16390
1
3
5
7
9
11
13
15
17
19
21
23
25
29
31
33
39
41
43
45
47
49
51
55
57
59
61
63
67
71
73
75
77
79
81
83
87
93
95
99
101
103
105
107
109
111
113
115
119
121
123
125
127
133
137
141
143
145
147
151
153
155
157
159
161
163
167
169
173
175
177
179
183
185
187
189
191
193
195
199
203
205
207
211
215
217
221
223
227
231
233
235
237
239
241
247
249
251
253
255
259
263
265
267
269
271
273
283
285
287
289
297
301
303
311
313
315
317
319
16385
16387
16389
16391
16395
16397
16399
16401
16403
16407
16409
16415
16419
16423
16425
16427
16429
16433
16435
16441
16443
16445
16449
16459
16467
16469
16471
16477
16479
16481
16483
16491
16493
16495
16499
16503
16505
16507
16509
16511
16513
16515
16527
16529
16535
16539
16541
16543
16545
16553
16557
16559
16561
16565
16567
16569
16571
16575
16579
16583
16585
16587
16591
16593
16595
16599
16603
16605
16607
16611
16621
16623
16625
16635
16637
16641
16643
16651
16653
16655
16659
16663
16665
16667
16669
16671
16673
16675
16677
16681
16683
16685
16691
16699
16703
82
114
16696
152
156
256
16412
16646
250
16466
16646
16686
60
204
16638
78
208
16656
74
198
16440
16444
16520
16
16644
16385
16399
16403
16407
16413
16445
16461
16463
16467
16471
16473
16477
16491
16499
16505
16513
16519
16537
16559
16577
16593
16621
16647
16649
16653
16671
16679
16685
16689
16691
16695
46
50
174
16392
16662
126
290
16392
290
16452
16397
16407
16409
16411
16487
16505
16509
16561
16585
16591
16619
16637
16701
124
184
16562
288
16389
16391
16395
16399
16401
16403
16409
16415
16419
16421
16423
16425
16427
16431
16433
16435
16437
16445
16447
16449
16453
16457
16459
16463
16465
16467
16471
16473
16477
16479
16483
16485
16487
16493
16499
16505
16509
16511
16519
16521
16523
16529
16531
16533
16535
16539
16545
16547
16549
16561
16565
16567
16569
16575
16589
16593
16597
16605
16613
16615
16617
16621
16623
16625
16633
16635
16637
16643
16645
16651
16653
16661
16663
16667
16671
16677
16683
16687
16691
16693
16701
16703
88
16652
260
3
17
25
31
33
35
39
41
45
47
49
51
57
63
65
67
75
77
79
87
103
107
119
127
137
141
145
147
151
153
155
161
169
177
183
185
189
193
215
217
219
223
235
247
253
255
267
269
271
279
283
285
289
301
303
16610
18
220
16684
3
5
7
9
13
15
25
29
31
33
39
41
45
47
49
51
53
61
63
73
75
77
79
83
85
87
89
99
101
103
111
115
117
119
125
129
131
135
141
145
147
151
153
157
165
167
169
173
177
179
181
183
185
189
191
193
199
203
205
213
215
221
223
229
231
233
239
245
251
253
257
259
261
265
269
271
277
279
283
285
287
293
303
305
309
311
317
319
16494
268
16640
132
11
17
35
97
109
135
155
217
263
16460
1
5
7
9
15
17
19
23
25
27
33
35
39
43
47
49
51
53
57
59
61
63
67
73
75
77
79
81
83
85
87
93
101
105
107
109
111
113
115
117
123
125
127
129
131
133
135
139
141
143
145
147
149
151
153
155
157
159
163
165
169
171
173
175
179
183
187
191
195
199
201
203
205
209
211
217
223
231
233
235
237
239
247
249
253
257
261
267
269
271
273
277
279
285
287
289
307
313
317
16504
16604
8
46
168
318
16385
16387
16389
16391
16393
16395
16397
16399
16403
16405
16407
16413
16419
16423
16425
16429
16431
16435
16437
16441
16445
16449
16451
16453
16455
16461
16463
16465
16467
16469
16477
16479
16481
16483
16485
16487
16489
16495
16497
16499
16505
16511
16513
16515
16517
16519
16525
16529
16535
16537
16541
16543
16561
16565
16567
16573
16577
16579
16581
16587
16593
16597
16601
16605
16607
16611
16613
16615
16621
16625
16629
16633
16637
16641
16643
16645
16647
16653
16659
16661
16663
16665
16671
16673
16679
16681
16685
16689
16697
16701
158
16672
246
16392
16610
260
298
16462
16664
202
16400
16408
1
3
5
9
11
13
15
17
19
25
31
35
37
39
41
43
45
49
51
53
55
57
59
61
65
67
69
71
77
79
81
83
85
89
91
95
97
101
107
111
113
115
117
119
121
123
125
129
131
133
135
137
139
141
145
149
151
153
155
157
159
161
165
167
173
175
177
181
183
185
187
189
191
197
203
205
209
213
217
223
225
227
231
235
237
243
255
257
261
269
271
273
277
279
281
285
287
289
295
297
301
315
317
319
16385
16387
16389
16391
16393
16397
16399
16401
16403
16405
16407
16409
16415
16421
16423
16425
16429
16431
16435
16437
16439
16443
16447
16449
16451
16457
16459
16461
16463
16465
16467
16473
16475
16477
16481
16483
16489
16493
16495
16497
16501
16503
16505
16507
16509
16513
16521
16525
16529
16533
16535
16537
16541
16543
16549
16553
16557
16563
16567
16569
16571
16573
16575
16577
16581
16587
16589
16591
16593
16595
16597
16599
16605
16607
16609
16611
16613
16615
16617
16627
16631
16633
16641
16643
16645
16647
16653
16655
16657
16659
16665
16669
16671
16675
16679
16681
16687
16689
16701
130
16692
16387
16395
16397
16399
16401
16403
16407
16409
16411
16415
16417
16419
16427
16429
16431
16433
16435
16439
16441
16443
16445
16447
16449
16451
16455
16457
16459
16461
16463
16465
16471
16473
16475
16477
16479
16481
16489
16493
16497
16503
16507
16511
16519
16521
16523
16529
16535
16537
16539
16557
16559
16561
16563
16567
16569
16571
16575
16583
16585
16587
16589
16591
16593
16607
16609
16615
16617
16619
16621
16623
16633
16635
16639
16641
16647
16649
16653
16663
16665
16667
16669
16671
16673
16675
16683
16685
16699
16703
5
7
11
15
17
19
23
25
31
39
43
49
51
53
55
61
63
65
67
73
77
79
83
85
87
89
93
95
97
101
103
107
109
113
121
125
127
129
131
133
137
141
143
145
147
149
151
153
155
159
161
163
165
169
173
177
189
191
193
197
205
207
215
217
221
223
227
229
235
237
239
245
247
251
253
255
261
269
271
273
287
289
291
297
299
315
317
319
16504
16562
16650
16674
270
16452
292
1
3
87
89
111
135
137
179
275
281
313
16408
166
16476
114
34
198
32820
32931
32977
33013
33020
49294
33072
32793
32811
49346
32828
49244
32824
49302
33018
49190
32874
49420
32972
49197
49211
49217
49229
49235
49241
49249
49257
49261
49263
49265
49267
49275
49277
49279
49281
49283
49289
49295
49297
49299
49301
49303
49305
49307
49311
49313
49315
49317
49319
49323
49333
49339
49341
49343
49345
49347
49351
49353
49357
49359
49361
49363
49367
49369
49371
49373
49375
49377
49379
49387
49389
49391
49393
49397
49399
49401
49405
49407
49409
49411
49413
49415
49419
49421
49423
49425
49427
49429
49433
49435
49441
49447
49449
49453
49457
49459
49461
49471
32774
33055
49198
32774
32888
49372
33086
49468
49159
49215
32784
49436
33058
49176
49160
32774
49456
32958
49294
33068
49178
32944
49238
49436
49166
49223
32802
49158
33086
49388
32994
49402
32769
32785
32787
32797
32799
32801
32803
32819
32829
32831
32833
32835
32839
32845
32847
32859
32863
32867
32875
32887
32889
32891
32895
32901
32911
32913
32921
32927
32929
32931
32933
32941
32943
32947
32949
32953
32955
32957
32959
32961
32963
32967
32973
32975
32977
32981
32983
32987
32993
32995
32997
33001
33005
33009
33011
33019
33023
33025
33029
33031
33033
33037
33041
33043
33051
33055
33057
33059
33063
33065
33067
33069
33071
33073
33081
33085
33087
49214
49350
33052
49186
32916
49354
32814
49470
32846
49464
49153
49185
49195
49343
49391
49405
32788
32836
49234
32774
49176
49450
32984
49420
32768
32985
33037
49430
33080
49264
33024
49428
49444
49460
32888
49398
32778
49314
32948
49308
33080
32769
32815
32827
32863
32865
32879
32883
32893
32897
32909
32911
33007
49454
32818
49262
33068
49430
32768
32985
49352
32864
49446
32814
49200
32784
49152
49353
49369
49385
32776
49446
49343
49403
32988
49160
33070
49162
32830
49306
33048
33080
49346
32888
49366
33068
49230
32876
49378
33082
32795
32821
32831
49314
33066
49382
32896
49438
32946
49440
32798
49208
32856
49230
33030
49424
32782
33047
33069
49218
33058
32857
32873
49158
32790
32995
49162
32886
49266
32826
49378
32790
33067
33069
49298
33010
49464
49249
49257
49275
49293
49313
32992
49326
32904
32772
32989
32995
33045
33073
49160
32898
49276
32810
49440
32798
16572
16487
16607
4
16
20
22
28
30
32
38
46
64
70
86
102
112
124
134
144
148
156
160
166
176
180
190
198
200
204
220
224
236
240
254
16400
16404
16406
16414
16416
16422
16460
16536
16550
16582
16592
16598
16608
16612
16636
38
44
48
54
64
78
86
102
124
146
150
156
204
262
270
316
318
16409
16425
16433
16441
16457
16473
16483
16487
16525
16537
16547
16577
16601
16617
16633
16643
16649
16663
32
44
60
86
88
124
152
172
176
196
220
222
240
244
16422
16438
16640
16646
16457
60
86
92
176
192
278
15
16419
16433
16447
16465
16467
16473
16521
16563
16641
16671
16675
100
234
47
265
16586
16543
16569
182
284
89
185
203
249
281
297
16634
16451
16467
16497
16617
8
28
48
64
92
100
134
160
286
16532
16447
16663
38
60
80
92
108
118
140
146
208
224
278
16416
16544
16409
16491
16523
16539
16555
16601
16617
16619
44
208
236
318
91
137
16460
16516
16556
16604
16620
16624
16499
6
112
208
288
25
105
16410
16458
16538
16554
16650
16451
302
25
41
73
137
153
185
237
281
309
16403
16419
16425
16457
16467
16483
16489
16499
16505
16515
16537
16547
16557
16569
16571
16577
16585
16627
16633
16643
16649
16665
16675
16681
16697
20
28
32
38
44
48
70
102
112
118
124
166
204
256
262
286
310
16412
16428
16444
16460
16476
16492
16508
16524
16540
16556
16572
16588
16604
16636
16652
16668
16700
16483
6
12
28
42
44
76
92
108
122
140
156
202
204
218
250
262
314
16446
16450
16452
16476
16502
16512
16542
16646
16652
16688
16702
12
28
44
60
124
140
156
188
204
236
252
266
99
16444
16460
16421
16467
16649
92
260
47
67
16444
16454
16460
16470
16480
16486
16502
16504
16512
16516
16518
16534
16540
16544
16550
16560
16576
16582
16584
16604
16614
16624
16628
16630
16638
16646
16662
16672
64
80
96
112
128
144
160
176
192
208
224
240
256
272
25
43
171
16432
16444
16452
16456
16460
16478
16484
16494
16500
16510
16528
16530
16532
16540
16544
16548
16558
16564
16604
16606
16612
16620
16624
16652
16654
16668
16672
16686
16702
108
314
63
16385
16403
16409
16419
16425
16435
16457
16467
16489
16517
16523
16553
16585
16625
16627
16631
16633
16649
16663
16665
16675
16681
58
9
25
33
73
121
137
233
249
16400
16484
16572
16608
16620
16624
16636
16646
16654
16682
76
310
137
185
217
297
313
16409
16441
16449
16469
16473
16477
16505
16515
16521
16617
16643
16665
54
62
64
72
76
96
112
116
118
134
156
166
182
204
214
220
16393
16409
16419
16435
16441
16453
16467
16487
16499
16521
16531
16569
16577
16579
16617
16631
16633
16643
16645
16649
16665
58
60
76
108
140
308
249
16396
16572
16636
16393
16443
16491
16665
94
9
25
41
89
105
121
173
185
189
201
217
219
233
281
297
16444
16602
16614
16636
16644
16664
16684
16688
16
28
32
54
70
100
102
118
136
172
182
204
212
224
230
268
272
284
288
316
16404
16412
16416
16422
16432
16444
16448
16454
16464
16480
16486
16502
16508
16510
16518
16520
16524
16530
16540
16544
16548
16556
16566
16572
16574
16588
16598
16606
16620
16622
16624
16642
8
30
76
80
108
112
134
144
204
206
214
16596
16447
16505
16537
16553
16585
16601
16607
48
68
70
82
102
118
126
136
184
230
262
268
270
16532
16668
16473
16569
16585
16631
16665
116
41
105
137
185
205
233
249
269
16396
16419
16421
16483
16523
16547
16579
16607
16617
16627
4
52
180
73
89
137
185
207
233
265
281
16420
16672
16693
9
27
73
89
105
121
137
139
153
171
185
201
217
235
239
281
283
297
16390
16700
16425
16457
16521
16617
41
89
103
137
173
193
199
219
221
231
263
279
281
295
16384
16390
16402
16422
16448
16475
44
48
70
78
188
276
284
288
292
294
300
304
316
16490
16492
16538
16385
16401
16417
16521
49
89
111
137
169
175
179
185
201
257
259
16429
16489
16555
16571
16621
16663
12
20
44
92
96
124
132
156
158
188
236
238
310
318
16438
16446
16460
16490
16492
16512
16518
16652
16658
16672
16
176
192
256
272
288
25
105
187
233
16686
16393
16409
16419
16425
16441
16457
16473
16505
16569
16577
16617
16663
76
140
188
278
55
16400
16480
16630
16672
16491
190
9
25
121
141
185
187
233
281
16388
16404
16484
16580
16628
16409
16425
16441
16473
16505
16521
16585
16617
16649
16665
16681
12
92
246
316
297
16436
16458
16532
16580
16660
16393
16505
30
252
9
57
243
16554
16618
16634
16650
16666
16545
9
25
45
49
73
89
105
121
137
151
153
167
169
179
185
201
209
233
279
281
291
313
16422
16432
16438
16470
16502
16508
16560
16678
16700
2
12
20
38
76
128
156
198
262
288
16384
16400
16448
16480
16496
16524
16528
16544
16560
16572
16576
16592
16608
16620
16656
16688
16702
16441
164
83
169
211
16436
16484
16596
16668
16425
16537
44
74
92
124
172
188
236
310
316
105
16436
16444
16446
16454
16464
16470
16472
16478
16492
16496
16502
16508
16512
16518
16528
16550
16556
16560
16566
16572
16580
16592
16598
16604
16606
16620
16624
16638
16654
0
10
36
116
158
206
212
254
284
16387
16425
16433
16465
16467
16489
16499
16525
16529
16553
16579
16593
16617
16665
28
252
316
37
105
16438
16454
16480
16484
16494
16496
16500
16516
16518
16524
16542
16544
16548
16560
16566
16574
16592
16622
16624
16642
16654
16
20
22
42
48
62
64
86
104
190
16388
16628
16425
16441
16489
16505
16537
16617
16633
16637
16649
16697
32
156
260
57
281
16387
16419
16441
16451
16457
16465
16469
16483
16487
16489
16537
16547
16553
16563
16593
16601
16643
16663
16665
16679
32
96
112
144
256
288
25
89
123
201
16425
16427
16459
16467
16573
16665
16691
44
90
108
124
156
186
188
220
234
252
284
294
316
16396
16492
16604
16628
16636
16652
16668
16435
18
20
22
146
41
89
153
217
16396
16582
16588
16533
60
76
92
198
266
23
35
16428
16444
16460
16524
16540
16556
16572
16588
16604
16620
16636
16652
16668
16684
16553
16633
15
25
67
153
175
243
281
313
16447
16457
16467
16483
16515
16521
16593
16639
16643
16665
16697
94
85
153
171
237
16634
16419
16579
16595
28
44
60
92
140
156
172
204
236
308
211
16412
16428
16460
16508
16524
16548
16572
16588
16604
16620
16636
16652
16668
16684
16451
64
176
192
204
220
222
224
240
256
288
283
16400
16426
16452
16524
16572
16644
16646
16648
16682
44
54
62
82
92
96
102
162
166
174
208
220
256
262
272
288
304
306
16384
16388
16406
16438
16480
16492
16518
16540
16620
16624
16632
110
126
142
190
25
57
83
121
137
247
249
309
16580
16676
16409
16415
16425
16441
16457
16473
16505
16521
16537
16553
16569
16585
16601
16633
16665
16681
16697
44
150
186
35
16409
16441
16463
16481
16489
16505
16527
16537
16543
16553
16585
16601
16617
16633
16655
1
9
37
49
131
133
137
169
189
307
16412
16409
16457
16463
16475
16521
16537
16601
16617
16633
16665
64
252
254
284
67
16406
16393
16409
16425
16457
16473
16489
16505
16521
16537
16569
16585
16601
16617
16633
16665
16681
16697
12
76
124
188
218
252
243
16428
16438
16446
16454
16464
16484
16502
16514
16516
16532
16588
16606
16620
16638
16648
38
44
76
92
108
124
172
188
204
220
236
252
268
284
316
281
16438
16484
16486
16508
16510
16588
16592
16608
16616
16620
16628
16636
16652
16656
16670
16688
12
26
202
276
300
16404
16410
16428
16430
16476
16478
16544
16560
16572
16610
16654
16658
16672
16688
16700
16702
44
48
52
64
102
134
172
176
306
312
316
16444
16460
16470
16492
16524
16540
16556
16566
16572
16588
16652
16668
16700
16409
7
9
43
67
73
81
83
89
133
163
185
199
243
249
16412
16419
16427
16441
16467
16473
16665
16681
52
68
140
148
164
180
196
41
121
137
249
265
281
16586
16497
16505
42
44
48
60
92
100
156
160
164
186
188
196
212
218
224
276
282
300
318
16530
16688
16393
16409
16427
16665
80
92
102
196
200
212
240
246
282
310
16586
16521
16545
4
164
41
73
89
121
127
137
153
169
201
217
233
249
265
281
16384
16612
16620
16688
16649
20
28
46
76
78
96
108
128
180
252
304
316
318
16384
16390
16492
16508
16510
16512
16514
16592
16672
16686
52
67
73
79
105
121
185
233
249
281
16444
16448
16462
16496
16508
16540
16548
16552
16556
16592
16620
16624
16636
16652
16654
16656
16668
16678
16688
16692
96
112
118
124
208
224
250
262
298
318
16390
16404
16436
16548
16393
16409
16473
16521
16537
16553
16569
16585
16601
16633
16649
16665
22
156
220
236
319
16390
16422
16438
16448
16454
16516
16528
16566
16576
16608
16694
16700
146
148
9
25
89
137
153
167
201
249
281
16478
16500
16560
16592
16638
16615
140
178
198
278
288
11
16444
16460
16464
16476
16502
16534
16538
16540
16558
16560
16576
16580
16592
16612
16624
16640
16664
142
25
43
57
105
137
163
185
189
201
219
233
249
265
16402
16404
16420
16624
16457
64
214
25
89
137
187
249
265
281
49165
49205
49231
32808
32909
49388
49351
49367
49413
49447
32781
32819
32847
49202
49442
49211
49399
32776
32778
32878
32906
32986
33032
49357
49359
49403
32770
32782
32784
32800
32802
32816
32834
32848
32850
32874
32882
32912
32916
32922
32932
32958
32960
32962
32970
32974
32990
33006
33012
33076
49296
49175
49239
49287
49351
32792
32874
32906
32920
32936
33002
33078
49338
49335
49351
32786
32792
32840
32890
32936
32952
32954
49258
49266
49272
49362
49368
49378
49394
49400
49410
49434
49446
49448
49458
49460
32844
32926
32807
32839
32983
33015
33031
33079
49176
49304
32888
32952
33048
33064
49388
49189
49301
49333
49429
49160
49166
49272
49368
49384
49400
32779
32881
32911
32989
49162
49210
49224
49226
49274
49352
49432
49448
49454
32890
32973
33029
49272
49279
49309
32904
32781
49288
32987
33071
33085
49160
49208
32884
32900
32980
33070
33076
32791
49154
49186
49218
49191
32768
32933
33015
33047
49157
49405
49453
32911
32997
33053
49288
32792
32796
32808
32840
32936
32952
32984
33016
33032
33048
33068
33080
49160
49453
32781
32879
32911
32923
49368
49403
32776
32872
32917
49170
49186
49202
49208
49320
49394
49400
49404
49406
49418
32781
32801
32831
32847
49162
49274
49434
49415
49447
33076
32775
32877
49372
49213
33016
32797
49176
49218
49248
49304
49354
49368
49420
49434
32779
32781
32861
49176
49260
49272
49288
49304
49320
49368
49414
49416
49430
49432
32786
32792
32840
32910
32952
33024
33040
33064
33070
49288
49253
49349
49429
32840
32888
49205
49405
49407
32929
33053
33069
49324
49415
49445
49449
49463
33057
33069
33081
33085
33087
49416
49309
49357
32988
32861
49176
49186
49234
49282
49336
32882
32972
32978
33006
32791
32807
49250
49173
32778
32938
32791
32807
32839
32903
32967
49194
49413
49443
32827
33021
33035
33037
33069
49256
49272
49320
33048
32877
49181
32858
32948
32962
32968
32984
33000
33032
33076
49186
49218
49266
49298
49342
49447
32984
32901
49157
49309
49323
49359
32782
32792
32872
32920
32938
32954
32968
33000
33002
33050
49368
49165
33008
33024
32775
32855
32903
32951
49186
49453
49469
32776
32933
49213
33005
33021
33031
49188
49309
49469
32775
32863
32877
32879
49170
49176
49192
49224
49242
49336
49384
32984
32925
49269
49301
49311
32984
32885
49224
32866
32978
32994
32791
32823
49307
49469
32773
32829
49160
49224
49384
49432
32844
32850
32872
32874
32882
32892
32914
32922
32968
32984
32994
33002
33010
33040
33048
49154
49176
49224
49288
49362
49400
49448
32840
32872
32888
32904
32920
32984
32998
33000
33032
33050
33064
33080
49202
49218
49266
49342
49227
32856
32888
32920
32952
32954
32986
32998
33000
33048
33064
49288
49342
49409
32852
33027
33069
33079
49199
49307
49341
49359
49419
32968
32957
49389
49405
49421
49453
33035
33069
33071
49256
49384
33000
33048
32829
49290
49322
49429
49447
32808
32941
49464
49269
32798
32908
32935
32967
33015
33063
49176
49240
49256
49258
49304
49320
49338
49370
49400
32781
32791
32829
32911
33035
49166
49184
49208
49304
49416
49428
49448
32775
32797
32863
49163
49197
49217
49231
49263
32775
32797
32807
32815
32829
32831
49380
49460
49197
49213
32802
32965
49166
49214
49372
49205
49431
49463
32920
49434
49191
49239
49287
49335
32824
33009
49277
49287
32792
32840
32888
32984
33000
33029
49186
49192
49208
49304
33052
32919
32965
32967
49213
49247
49261
49277
32818
32952
49248
49287
49399
49463
32782
32888
32920
33032
33031
49351
49463
32825
33037
33057
49346
49362
49378
49165
49175
32824
32840
32842
32860
32872
32910
32984
33002
33018
33050
33054
49224
49304
49352
49416
33059
33071
33085
49202
49269
49317
32792
32840
32968
32984
33000
33052
33082
49221
32776
32813
49176
49325
32834
32840
32893
49266
49159
49317
33069
49446
49245
33057
33069
33071
49224
49240
32786
32807
49175
49181
49185
49211
49231
32956
32990
32885
32901
49407
49469
32779
32781
32829
32847
49165
49181
49217
49263
32938
32970
33008
33054
32817
32937
49170
49175
49381
49419
33053
33069
33081
33085
16391
16395
16459
16465
16473
16551
16577
16617
16619
16697
62
300
59
71
187
16434
16446
16450
16466
16478
16480
16482
16494
16498
16512
16514
16526
16528
16562
16578
16608
16610
16622
16624
16626
16642
16650
16656
16658
16672
16674
16690
16423
16519
16535
60
62
64
88
94
98
110
126
144
174
176
190
222
226
238
258
308
16416
16430
16432
16444
16446
16456
16460
16462
16476
16494
16528
16536
16542
16552
16558
16568
16574
16590
16604
16608
16630
94
7
75
87
89
133
135
215
245
247
261
291
16432
16444
16460
16466
16482
16496
16528
16540
16562
16576
16670
16678
128
163
253
16542
16421
16473
16481
16517
16555
16583
16613
16617
16619
16647
16661
16679
66
76
80
112
126
144
162
174
190
222
244
256
260
272
280
302
314
318
16384
16514
16526
16610
16692
16455
16583
30
174
286
21
85
87
117
133
219
229
245
267
277
16468
16532
16580
16676
16507
16
24
30
32
64
80
94
110
128
136
144
160
188
192
204
254
256
272
284
288
304
318
16526
16439
16455
16487
16509
16535
16567
16583
16589
16621
16631
48
62
66
80
96
112
128
144
208
224
240
272
288
290
304
39
55
71
87
103
119
135
167
183
199
231
247
263
279
295
16464
16476
16478
16480
16496
16528
16550
16552
16576
16590
16604
16620
16622
16624
16632
16662
16670
16672
16686
62
158
69
133
197
213
219
291
315
16415
16423
16551
16585
16623
16649
16665
16671
2
16
18
30
32
34
50
66
80
82
112
114
126
130
192
194
210
226
240
89
119
16465
16497
16513
16519
16551
16555
16561
16619
16679
16695
120
174
182
190
206
208
224
232
238
310
16386
16402
16418
16430
16434
16450
16466
16530
16578
16610
16622
16690
16423
16489
16615
0
2
16
34
46
48
62
64
66
80
130
146
178
194
218
222
226
244
256
258
270
272
304
16384
16386
16400
16414
16450
16494
16514
16536
16546
16594
16663
46
50
66
74
76
82
98
110
114
124
130
154
156
162
174
178
190
208
210
224
238
242
258
270
272
16528
16576
16598
16501
16645
2
270
23
55
71
87
103
119
167
199
231
279
315
16444
16450
16480
16492
16556
16558
16564
16574
16576
16592
16638
16692
11
41
55
75
89
105
153
161
169
171
199
201
203
219
233
235
251
267
283
299
315
16416
16430
16432
16434
16446
16448
16462
16466
16478
16480
16492
16494
16508
16510
16512
16514
16524
16546
16556
16562
16576
16588
16590
16592
16594
16606
16608
16610
16624
16626
16636
16640
16642
16656
16658
16407
47
143
185
249
271
16448
16464
16478
16512
16544
16560
16600
16606
16608
16411
14
28
48
96
104
110
134
152
160
238
256
16398
16494
16574
16686
16702
16453
16523
16603
1
9
25
85
105
119
121
149
181
185
215
267
16415
16575
16601
16607
16687
50
64
96
108
112
120
128
158
174
194
200
210
222
224
240
242
290
306
16584
16475
146
113
169
297
16578
16658
16690
16391
16407
16621
16647
16665
32
94
112
214
216
238
240
284
286
304
318
16405
16421
16433
16453
16455
16469
16503
16519
16533
16565
16597
16599
16629
16653
16661
16677
7
9
39
61
93
125
169
185
199
205
215
231
233
237
247
265
285
311
16400
16456
16480
16568
16592
16600
16648
16668
16672
23
31
55
63
73
87
135
153
159
169
239
16402
16432
16450
16478
16490
16522
16526
16544
16546
16560
16584
16674
242
43
71
77
105
121
199
247
313
16432
16444
16446
16450
16458
16460
16464
16466
16474
16478
16480
16490
16494
16496
16508
16510
16512
16514
16524
16526
16528
16530
16540
16542
16546
16556
16558
16560
16562
16574
16576
16578
16588
16590
16592
16608
16610
16622
16624
16626
16634
16656
16672
16674
16688
16690
16698
16702
46
60
94
126
140
174
190
204
236
238
254
39
139
16538
16495
32
46
48
64
94
176
270
272
304
310
16432
16472
16494
16504
16584
16600
16616
16656
64
80
176
310
37
69
16412
16414
16460
16508
16572
16519
16551
16565
16615
16647
16677
0
2
302
318
251
295
16666
16423
16703
111
143
159
16442
16448
16480
16560
16576
16592
16602
16391
16407
16583
16
72
94
128
158
160
166
184
200
224
16428
16488
16622
16507
170
202
159
309
16411
16423
16439
16441
16461
16473
16477
16493
16505
16509
16525
16535
16537
16541
16551
16569
16573
16583
16601
16631
16685
18
34
66
72
98
144
152
158
176
188
192
16634
16639
48
95
151
199
16384
16400
16416
16476
16478
16480
16488
16496
16526
16528
16576
16592
16606
16622
16624
16640
16656
16670
16694
196
244
103
16535
16541
16555
16595
16635
16647
16685
16697
57
61
73
79
83
119
221
233
311
16514
16536
16584
16630
16652
16
80
96
112
128
192
5
37
117
139
213
16471
16503
16511
16519
16535
16567
16581
16613
16633
16661
16665
16693
16697
16
288
85
101
315
16414
16418
16430
16446
16462
16478
16494
16510
16514
16546
16642
16423
16503
16519
16567
16583
16599
16615
16631
16647
16663
16665
28
66
69
181
265
277
279
16423
16439
16451
16467
16511
16515
16521
16563
46
238
21
59
69
85
181
197
219
235
261
16423
16471
16495
16501
16645
16687
11
65
105
137
169
225
231
16416
16440
16448
16478
16536
16590
16614
16622
16664
16686
46
50
66
82
96
98
112
130
144
146
158
162
174
176
178
194
208
210
226
242
258
272
274
290
302
304
306
318
87
16409
16421
16439
16441
16481
16503
16519
16535
16663
16665
16695
110
254
264
171
16402
16414
16446
16526
16528
16530
16544
16574
16600
16606
16640
16674
16688
16692
16702
64
80
92
96
110
112
120
128
130
142
144
172
174
176
200
204
208
210
222
224
240
242
254
256
270
272
286
288
302
16408
16444
16464
16478
16480
16496
16518
16526
16560
16574
16600
16604
16620
16638
16688
0
16
32
44
46
48
64
80
92
94
96
112
128
136
144
152
176
192
200
208
216
256
288
296
16574
16393
16405
16421
16423
16439
16453
16455
16457
16469
16471
16473
16487
16503
16505
16519
16535
16551
16555
16567
16581
16583
16585
16599
16603
16613
16617
16619
16631
16633
16679
16695
80
110
124
126
128
136
142
160
174
176
192
198
206
208
216
236
238
240
248
270
280
304
318
16446
16448
16462
16464
16478
16512
16528
16542
16544
16574
16576
16590
16592
16606
16608
16624
16638
16688
16507
7
31
103
135
151
153
165
183
233
239
16386
16400
16414
16424
16430
16446
16450
16496
16526
16528
16540
16542
16558
16562
16574
16578
16588
16590
16592
16608
16620
16640
16654
2
12
14
16
18
28
34
66
80
82
114
122
124
130
140
144
146
156
176
186
210
218
220
240
242
252
256
258
266
268
270
16608
16567
16623
16629
16645
60
82
126
128
142
148
174
178
192
208
220
236
240
274
280
286
302
306
16594
16690
16487
16573
16697
0
2
18
30
34
46
62
64
76
82
108
110
126
140
142
158
160
162
170
174
176
190
192
194
202
210
222
226
234
238
240
258
266
270
16398
16400
16408
16412
16430
16446
16462
16480
16496
16512
16544
16560
16576
16590
16592
16608
16622
16638
16650
16654
16672
16680
16686
16688
144
176
7
167
175
247
16400
16416
16422
16428
16430
16448
16464
16478
16494
16502
16504
16512
16528
16556
16568
16592
16608
154
39
63
159
16428
16432
16446
16448
16450
16452
16462
16478
16492
16512
16578
16668
16672
16686
16688
16700
306
103
183
185
189
217
247
265
281
16446
16395
16521
16539
16545
16551
16601
16617
16667
29
41
45
67
79
89
121
131
169
217
253
16444
16458
16472
16476
16526
16528
16542
16594
16596
16604
16606
128
240
7
69
87
197
307
16414
16418
16430
16434
16450
16466
16494
16512
16514
16594
16423
16553
16599
16647
66
258
7
39
135
167
173
263
279
311
16654
16471
16473
16517
16523
16551
16553
16571
16585
16603
16615
16617
16633
16693
16695
80
94
96
112
128
142
144
172
174
216
244
270
272
280
288
290
312
16400
16402
16414
16416
16430
16444
16448
16450
16466
16490
16494
16496
16510
16514
16524
16530
16540
16544
16546
16562
16574
16576
16594
16604
16606
16608
16624
16640
16642
16654
16656
16658
16668
16672
16674
16686
16688
16690
39
73
101
117
121
125
135
151
173
197
199
215
229
231
285
309
16384
16444
16446
16448
16464
16472
16496
16528
16556
16572
16576
16592
16604
16618
16624
16640
16654
16656
80
144
152
176
208
224
59
16608
16391
16423
16455
16487
16551
16567
16591
18
32
46
48
50
62
64
66
78
80
82
92
94
96
98
106
108
110
114
124
126
130
140
142
146
156
158
160
162
170
172
174
176
178
188
190
192
202
204
206
208
210
222
224
226
236
252
256
258
16624
16656
16672
16391
16503
16551
16615
16621
82
90
128
138
164
218
232
272
290
304
16391
16395
16421
16425
16439
16459
16471
16475
16505
16517
16519
16565
16567
16581
16587
16595
16599
16603
16617
16629
16631
16649
16651
16663
16695
16699
21
53
115
283
307
16393
16441
16473
16497
16529
16589
16601
16603
16635
5
7
35
37
41
71
89
169
205
211
253
301
16386
16400
16402
16414
16418
16430
16432
16434
16446
16448
16450
16466
16480
16482
16494
16498
16510
16512
16514
16530
16542
16544
16546
16560
16576
16578
16580
16590
16594
16606
16622
16626
16652
16672
16674
16688
16690
16
62
72
144
166
184
188
200
224
16548
16690
16409
16411
16439
16583
9
17
87
121
145
16386
16418
16578
16594
16610
16626
16391
16423
16439
16441
16471
16487
16489
16503
16519
16535
16551
16569
16583
16615
48
127
309
16702
16421
16469
16471
16553
16567
16599
16619
16629
16635
16661
16663
16695
16697
80
79
163
16403
16471
16511
16655
23
37
53
85
101
121
133
145
149
151
165
169
197
215
229
247
251
277
295
16542
16407
16421
16437
16439
16443
16453
16469
16471
16473
16485
16519
16523
16535
16551
16583
16615
16617
16619
16629
16631
16633
16661
16679
16693
16695
2
7
27
59
89
103
123
199
249
313
16400
16391
16421
16439
16485
16487
16503
16519
16533
16539
16549
16551
16583
16599
16615
16631
16647
16661
16683
16695
14
7
65
151
153
169
219
283
16660
16441
16473
16477
16569
16601
250
159
16480
16494
16496
16502
16510
16524
16528
16544
16624
16664
16686
16696
48
175
185
16464
16463
16547
2
18
30
34
78
110
126
130
158
170
174
178
186
210
224
135
199
16434
16462
16466
16498
16514
16530
16542
16562
16574
16642
16654
16663
16
208
304
13
16464
16488
16496
16443
46
48
64
72
80
88
96
112
5
16416
16418
16432
16446
16448
16466
16478
16480
16488
16492
16496
16512
16544
16546
16552
16560
16562
16576
16578
16592
16594
16606
16608
16632
16636
16654
112
196
200
208
232
292
312
49178
49256
49290
49338
49402
49404
49446
32817
32819
33011
33059
49162
49178
49194
49210
49214
49226
49230
49244
49256
49278
49290
49294
49358
49370
49386
49432
49438
32769
32845
32875
32909
32915
49162
49178
49194
49196
49200
49208
49210
49226
49230
49242
49244
49258
49260
49274
49278
49290
49294
49308
49322
49342
49354
49356
49358
49374
49388
49404
49436
49450
49454
32898
32817
49206
49153
32875
32921
32971
32987
33005
33023
33043
49190
49208
49252
49254
32945
32947
32975
33007
49311
49329
49359
49363
49391
32779
33041
33059
33071
33087
49162
49226
49260
49262
49272
49306
49308
49336
49352
49402
49406
49420
49434
49436
49438
49466
49468
32890
32906
32922
32974
33018
33054
32951
49350
49377
32910
32940
32960
32787
32811
49215
49329
32822
32873
49158
49302
49412
49414
32945
49158
49204
49380
32806
32822
32836
32930
33046
49158
49238
49341
32779
32783
32817
32819
32875
49182
49407
32995
33009
33011
33041
49426
49219
49255
49257
32788
32822
32906
49359
49361
49377
49391
32795
33003
33023
33071
33073
33075
49153
49155
49215
49443
32779
32785
32803
32827
32831
32845
49318
49328
49332
49380
49410
49452
32778
32798
32802
32810
32812
32824
32826
32842
32858
32888
32922
32984
33008
33018
33080
33086
49286
49377
32975
32995
33003
49402
49153
49155
32772
32776
32820
32934
49332
49398
49410
32954
32990
33018
32803
49203
49227
49249
49251
49297
49315
32785
32831
32843
49172
49254
49268
49302
49350
32898
32779
33067
33087
49156
49268
49338
32774
32790
32815
49190
49204
49284
32993
33023
33025
49172
49356
49404
49438
49454
33008
33038
32771
32921
33033
49416
49231
49247
49265
32779
32819
32911
33005
49262
49306
49322
49338
49187
32850
32864
33035
33077
33085
49311
49457
49469
32826
32846
32874
32894
32910
32954
33050
32771
49188
49196
49452
49462
49307
49311
32779
32941
32971
33019
33071
33083
33085
49460
49462
49155
32790
32793
32969
49153
49215
32902
32769
49312
49330
49467
32810
32826
32832
32842
32846
32848
32858
32860
32864
32874
32876
32878
32890
32894
32908
32912
32924
32926
32936
32938
32942
32944
32954
32958
32970
32972
32974
32992
33002
33004
33008
33018
33020
33022
33034
33036
33038
33054
33066
33070
33082
33084
33086
49247
49291
49329
49395
32831
32849
49185
49329
33000
32865
49262
49354
49386
49251
32788
32806
32836
33018
49162
49194
49226
49244
49262
49272
49274
49276
49322
49326
49358
49388
49400
49402
49406
49456
32975
32993
33075
49203
49233
49251
49265
49245
49357
49395
49425
49439
32824
32826
32858
32890
32906
32928
32938
32952
32954
32958
32972
32986
33018
33020
33034
33038
33050
33066
49294
49310
49406
49434
49269
32854
32884
32938
32954
33026
49318
49249
32804
32806
32817
49206
49268
49458
32789
33005
33023
33039
33041
33055
33073
49286
49325
49429
49457
32884
33084
32793
49160
49162
49178
49182
49210
49258
49262
49278
49280
49288
49306
49308
49390
49402
49434
49448
32852
32902
32769
49190
49430
32776
32950
49254
49318
32918
33016
32977
49155
49377
49409
32793
33023
33041
33071
33075
49266
49227
49425
49439
32836
32838
32934
49377
32877
32941
33039
33045
33055
33071
49226
49230
49232
49244
49256
49258
49262
49264
49274
49278
49280
49288
49290
49292
49296
49304
49310
49312
49322
49344
49356
49360
49370
49372
49374
49384
49386
49390
49392
49402
49404
49408
49418
49422
49424
49434
49440
49448
49450
49454
49466
49468
32810
32826
32972
33064
33076
33078
49263
49361
49387
49395
49407
32774
32870
49206
49350
49460
49462
32898
32982
32996
33046
49426
49452
49289
49335
49385
32771
32783
32819
32859
32891
49206
49318
49332
49350
32769
32785
32817
49206
49217
32988
32815
49430
49363
32948
32972
32769
49158
49183
32934
32879
49178
49194
49232
49242
49290
49292
49402
49404
49406
49428
32838
32886
32918
32982
33020
33066
49190
49220
49254
49282
49450
32769
32849
32863
49166
49258
49290
49173
49317
33056
33086
32873
32899
49391
32843
32875
32891
32909
32927
32959
49155
49215
32778
32782
32990
32931
49194
49210
49226
49244
49246
49260
49272
49274
49276
49290
49304
49306
49308
49322
49326
49360
49372
49374
49386
49388
49390
49402
49404
49406
49424
49436
49438
49450
49452
49454
49464
49468
49470
32782
32910
32899
49322
49450
49454
49235
32774
49254
49316
32911
32945
49350
49295
32945
33003
33011
49248
49266
49421
32822
33078
49350
49257
32790
32769
32897
49160
49384
32776
33023
33073
49345
49377
49389
49391
49407
32780
32794
32810
32826
32828
32830
32832
32846
32858
32874
32878
32896
32906
32908
32910
32912
32926
32938
32940
32942
32944
32954
32956
32958
32960
32970
32972
32974
32976
32986
32990
33002
33006
33018
33020
33022
33024
33034
33050
49158
49402
32910
32938
32958
33050
32787
49438
49450
49221
49301
49317
49319
32790
32793
49311
32856
32769
49295
49311
49341
49409
32790
32870
32884
49160
49190
49206
49240
49430
32788
32836
32900
32966
33078
16502
16504
16532
16540
16550
16580
16648
16678
16577
24
88
168
184
200
230
3
49
145
161
193
209
223
241
315
16412
16422
16468
16588
16616
16646
16660
16668
18
30
36
106
168
177
16408
16552
16568
16385
16417
16433
16481
16529
16561
16577
16679
16691
16703
8
36
56
84
88
33
177
219
257
289
16392
16424
16452
16552
16558
16610
16612
16614
16449
56
120
242
264
276
280
312
17
49
81
145
289
16486
16548
16622
16660
16441
34
36
52
66
70
116
130
132
146
150
182
214
270
286
16386
16394
16410
16424
16426
16440
16442
16444
16456
16458
16488
16492
16502
16504
16536
16554
16584
16602
6
86
134
184
29
65
171
177
16456
16522
16564
16586
16600
16616
16648
16660
16666
16690
16529
52
54
56
70
72
106
108
184
216
1
17
289
16456
16472
16584
16648
16662
16678
16411
16433
16465
16477
16641
16673
16689
24
26
56
152
168
184
218
234
266
295
16410
16434
16458
16500
16530
16550
16584
16598
16614
16648
16668
24
56
90
106
138
184
202
266
282
298
302
1
49
16538
16517
16671
16673
40
90
92
1
311
16516
16610
16612
16649
34
50
132
148
286
292
302
61
313
16408
16424
16472
16504
16520
16568
16584
16600
16632
16636
16431
16529
44
56
84
104
258
113
16420
16424
16440
16492
16584
16600
16628
16401
16449
22
34
36
38
70
86
102
104
124
278
310
312
16410
16536
16538
16600
16610
16465
24
40
42
120
1
47
49
81
95
207
305
16456
16460
16490
16504
16506
16508
16518
16532
16534
16552
16556
16558
16568
16570
16584
16586
16600
16604
16618
16632
16682
24
40
88
120
184
200
216
280
65
115
129
143
16440
16454
16456
16598
16411
16417
16449
16467
16497
16529
16561
8
10
24
40
56
72
106
154
184
202
216
232
298
67
259
16402
16486
16618
16642
16662
16678
16682
16543
72
104
136
184
209
309
16534
16686
24
40
42
56
58
72
88
106
120
122
136
138
152
168
202
216
65
211
16410
16456
16458
16472
16504
16508
16538
16552
16600
16679
24
40
56
72
104
106
120
122
136
138
152
184
186
202
250
264
266
227
16408
16472
16616
16417
16435
16629
38
82
100
102
118
158
164
194
300
304
13
16440
16454
16508
16510
16520
16524
16530
16532
16568
16584
16586
16648
24
42
170
216
264
17
111
127
131
143
193
209
273
16390
16392
16406
16422
16440
16452
16454
16518
16598
16417
16449
16481
16495
16513
16577
16591
16609
16651
56
184
238
241
16416
16440
16504
16520
16568
16586
16600
16680
16698
84
86
100
102
114
116
118
130
132
134
146
162
166
174
178
180
182
196
198
210
212
214
222
226
230
242
244
246
262
274
276
16470
16472
16417
16435
16529
16545
16557
16561
16577
16609
58
90
106
136
95
16412
16424
16426
16456
16488
16504
16506
16538
16648
16696
16497
16529
16593
6
36
118
230
238
189
16446
16470
16484
16486
16516
16534
16546
16578
16580
16676
16701
72
90
136
154
184
232
264
314
207
225
16388
16392
16470
16500
16614
16630
16497
16545
16603
42
44
104
116
280
296
81
16441
36
56
58
60
72
84
154
180
186
194
198
264
268
16408
16456
16600
16417
16433
16449
16465
16483
16497
16513
16515
16545
16593
16675
16685
16703
24
72
168
184
232
33
35
63
113
145
159
161
271
275
319
16406
16470
16486
16502
16552
16568
16614
16385
16481
16497
16529
16577
16589
16593
16603
16609
2
14
20
34
84
114
148
166
180
182
212
246
270
302
16392
16408
16456
16472
16552
16600
16433
16465
16481
16497
16515
16529
16545
16547
16561
16577
16593
16609
16689
16703
24
120
184
49
51
81
83
113
115
129
177
257
275
305
319
16450
16526
16532
16550
16626
16686
16393
58
60
148
152
274
193
16404
16408
16440
16452
16472
16552
16612
16417
16447
16497
16513
16525
16529
16561
16573
16575
16577
16653
24
168
216
1
15
17
33
49
161
193
209
221
225
291
301
317
319
16390
16404
16550
16445
16633
42
154
168
199
16408
16424
16472
16504
16552
16568
16632
16547
16549
16593
232
15
95
115
127
177
209
223
235
16410
16424
16426
16428
16442
16456
16458
16472
16474
16488
16490
16504
16506
16520
16522
16536
16538
16552
16554
16568
16570
16586
16600
16602
16616
16618
16632
16634
16648
16650
16664
16666
16680
16682
24
72
86
168
312
1
17
33
113
129
145
161
177
189
193
209
225
287
16384
16388
16398
16406
16422
16436
16454
16468
16502
16646
16670
16676
16477
36
40
56
84
88
132
204
232
129
16392
16481
16483
16499
16529
16561
16629
16687
4
14
52
54
84
100
118
150
190
260
16388
16390
16406
16468
16486
16500
16530
16532
16562
16564
16653
16697
22
24
84
86
134
136
168
214
216
33
129
209
241
251
257
273
305
319
16468
16474
16482
16632
16529
16545
16561
16577
16609
16641
16673
16689
40
52
56
72
78
106
124
152
184
16392
16408
16696
16465
16525
16561
16577
16589
16655
16669
38
82
100
102
196
294
235
16408
16456
16470
16472
16694
16465
16511
16545
16561
16603
16609
16687
151
209
16424
16438
16504
16568
16616
16660
16662
16449
16529
16571
8
24
26
42
60
88
90
106
120
122
136
154
168
170
184
200
202
218
264
312
16388
16404
16406
16418
16422
16486
16548
16578
16674
16678
16573
60
134
214
216
242
97
111
16426
16552
16564
16600
16401
16417
16465
16659
2
34
230
258
260
262
274
294
219
16406
16422
16494
16534
16598
16697
38
52
66
98
118
162
190
194
196
214
226
260
262
286
290
292
306
308
310
16392
16394
16456
16458
16488
16490
16520
16552
16570
16600
16682
16577
6
10
14
40
74
88
104
106
122
138
216
218
282
296
298
16490
16596
16606
16666
16680
16696
16529
8
24
40
42
58
72
88
104
120
154
168
172
182
184
232
238
248
264
16408
16424
16426
16458
16536
16552
16554
16584
16586
16600
16602
16616
16634
16648
16664
16666
16680
16682
16696
16593
72
216
310
67
79
81
127
173
177
193
225
237
289
16408
16472
16490
16498
16500
16518
16536
16574
16616
6
8
20
22
24
36
38
40
50
52
68
102
120
134
150
164
168
184
198
212
226
228
1
16406
16568
16596
16399
16417
16433
16449
16465
16555
16561
16609
16703
72
86
100
116
132
254
256
308
310
16406
16422
16454
16472
16568
16598
16401
16413
16417
16449
16465
16497
16529
16545
16561
16593
16609
16651
40
88
104
120
168
216
49
65
79
97
113
129
143
149
175
177
225
16408
16424
16426
16472
16488
16552
16554
16682
16403
16449
153
16392
16424
16488
16536
16552
16584
16604
16616
16648
16680
16696
16577
20
24
40
42
72
84
88
120
122
184
200
290
312
177
16392
16408
16424
16440
16456
16458
16504
16552
16568
16570
16600
16401
16417
16593
16669
74
90
148
168
174
216
232
33
49
16392
16408
16424
16456
16552
16385
16417
16431
16433
16447
16479
16483
16497
16515
16529
16545
16561
16593
16673
16689
16703
10
24
58
136
168
216
113
193
295
16396
16410
16460
16474
16476
16506
16508
16520
16522
16568
16570
16600
16618
16650
16666
26
58
60
88
120
136
152
184
200
216
234
1
16392
16394
16396
16442
16504
16552
16698
16700
116
230
33
81
123
219
225
239
16408
16552
16568
16403
16497
16513
16673
16677
16687
16703
38
54
70
82
98
100
116
132
134
148
158
166
212
302
11
16690
16545
240
274
302
16390
16404
16418
16452
16468
16500
16516
16530
16532
16548
16564
16566
16580
16614
16658
16660
16670
16676
16686
16692
16697
34
70
100
238
262
278
125
16408
16440
16442
16502
16514
16578
16588
16632
16652
16666
16694
16696
8
22
86
113
161
177
187
195
16392
16408
16440
16456
16488
16520
16568
16584
16616
16648
16664
16435
16479
16481
16495
16527
16577
16593
10
24
104
120
136
168
216
312
161
243
16392
16406
16408
16422
16424
16426
16436
16438
16440
16454
16456
16474
16486
16490
16504
16518
16520
16530
16536
16552
16568
16598
16602
16616
16632
16634
16648
16650
16664
16680
88
168
184
200
230
232
3
15
49
63
115
129
161
177
209
221
225
16670
16477
8
56
88
168
184
17
33
49
65
81
97
145
161
171
177
289
16408
16692
16447
16483
16607
16641
4
18
38
142
228
262
276
306
313
16390
16420
16422
16438
16440
16518
16536
16417
16449
16465
16481
16507
16609
88
138
168
298
47
49
65
81
97
129
143
145
177
255
273
305
16408
16424
16514
16518
16524
16552
16646
16680
16449
24
40
72
106
120
138
154
168
170
184
202
216
250
266
282
49
97
129
225
16404
16440
16456
16504
16600
16463
16465
16467
16481
16497
16511
16561
16577
16593
16641
8
42
56
136
138
232
147
163
16440
16502
16520
16550
16632
16684
16690
16694
16673
2
154
194
310
225
16410
16412
16474
16488
16522
16552
16602
16618
16654
16497
6
36
46
50
52
54
64
66
70
82
84
100
118
162
178
182
196
198
210
212
214
226
278
286
292
294
306
308
310
16406
16424
16428
16438
16440
16442
16456
16504
16520
16566
16584
16598
16621
4
6
20
22
40
54
72
86
102
104
116
118
132
134
136
152
166
198
200
212
214
216
230
232
246
248
264
278
292
207
289
16390
16394
16412
16426
16504
16520
16552
16600
16648
16650
16449
56
88
168
184
232
264
278
280
1
19
29
49
65
67
77
79
111
143
16406
16424
16440
16504
16646
16680
16694
16399
16465
16479
16495
16511
16545
16559
16561
16575
16621
16623
16639
16689
16703
34
66
82
84
104
120
134
136
148
152
168
184
246
250
278
286
298
312
16440
16472
16504
16520
16536
16552
16568
16584
16616
16387
16433
16465
16481
16561
16577
16579
16593
16595
120
136
166
184
296
3
49
93
177
257
289
49170
49172
49186
49188
49190
49202
49204
49234
49282
49314
49316
49330
49348
49394
49327
49439
32818
32877
32927
33005
49159
49321
32857
49335
32923
49270
49338
49396
49197
49277
49295
49309
49455
49469
32791
32905
49184
49214
49244
49308
49312
49328
49340
49342
49436
32775
32841
32871
49272
49376
49215
49279
49375
32857
49440
49444
49177
32807
32953
33031
49334
49215
49393
49433
32796
32844
32976
33008
33036
49159
49271
32971
49200
49208
49216
49246
49256
49264
49296
49302
49328
49360
32928
33021
49186
49202
49252
49254
49266
49270
49362
49215
49263
49375
49423
32841
32951
49176
49167
49325
49389
49405
49421
49437
49443
32905
49202
49295
49459
32775
32873
49431
49433
32853
32969
49250
49266
49276
49280
49372
49376
49378
49392
49436
32825
49168
49200
49204
49216
49222
49250
49280
49288
49368
49392
49400
49416
49430
49440
32812
32828
32848
32878
32896
32908
32924
32958
32976
32992
33020
49241
32985
33019
49383
32919
49192
49368
49181
49195
49293
49341
49403
49437
49453
32997
49170
49206
49252
49334
49295
49311
49327
49373
49391
32935
49195
49333
32807
49352
49211
49277
49307
49357
49387
32775
32953
49250
49163
49181
49357
32871
33079
49287
49337
32871
32985
49175
32820
32866
32916
32781
32799
32925
49335
32949
32951
33047
49193
32805
32937
32951
49287
32775
32841
49193
49335
32928
32821
33011
49279
49333
49407
49451
32949
32953
33029
49232
49244
49264
49312
49344
49360
49362
49376
49408
49468
32841
32853
49264
49301
32937
49177
49191
32828
32866
32880
32896
32928
32950
32992
33004
33050
33058
49205
49337
32832
32944
32956
32992
33004
33022
33052
49216
49244
49260
49276
49296
49312
49328
49382
49390
49392
32853
32985
49238
49268
49300
49364
49400
49410
49416
49464
49165
49199
49375
32857
49241
32816
32818
32848
32880
32922
32946
32998
33042
49191
49337
32855
49241
32949
32965
32985
49383
32868
32932
32863
32927
32959
49195
49269
32923
32949
49239
49415
32832
32860
32958
32976
32992
33042
33052
33070
49280
49295
32995
33015
33049
33077
49255
32775
32949
49162
49240
49248
49296
49312
49360
49392
49420
49440
32855
32905
49264
32809
33047
49192
49248
49250
49264
49286
49296
49298
49314
49330
49352
49360
49368
49392
49424
49432
32857
49307
49321
32855
32905
49168
49176
49208
49216
49234
49282
49296
49302
49312
49392
49430
49456
32842
32880
32924
32928
32944
33004
33008
33012
33014
33028
33042
33052
49239
49317
32951
49168
49360
49335
32791
32999
49177
49187
32983
33001
49159
49367
32828
32832
32876
32880
32924
32958
32986
32992
33038
49177
49237
32937
32951
49260
49262
49280
49340
49362
49376
49406
49420
32812
32828
32848
32976
32992
33064
49174
49218
49234
49300
49362
49426
49279
49391
32774
32776
32784
32800
32808
32824
32880
32896
32902
32912
32914
32920
32928
32944
32952
32964
33008
49168
49184
49214
49292
49310
49312
49340
49372
49470
32889
32917
49168
49184
49200
49208
49216
49250
49280
49288
49312
49328
49336
49344
49368
49241
49319
32770
32886
32936
32968
32829
32845
32925
32973
33021
33053
49431
32768
32800
32832
32840
32872
32944
32968
32976
33000
33008
33032
33048
49226
49417
49423
33001
33029
49254
49270
49302
49334
49350
49352
49165
49181
49231
49277
49357
49407
49443
49455
32768
32784
32832
33061
49399
49417
32976
32857
32983
49285
49333
49355
32953
49328
49243
32985
49369
32831
33039
33049
49383
32940
32793
49168
49244
49260
49312
49328
49340
49342
49376
49388
49392
49436
33039
33049
49175
32793
33011
49193
49367
32809
32949
49312
49349
32999
49175
32784
32812
32830
32832
32928
32940
32944
33008
33084
49175
49355
32857
32971
49175
32775
32793
49349
32981
33061
16399
16415
16445
16463
16469
16479
16555
16559
16575
16589
16611
16639
16655
16669
38
150
160
214
310
77
93
173
237
16484
16628
16399
16433
16447
16493
16561
16575
16605
16607
16625
16639
16689
2
296
13
29
79
141
155
173
16426
16432
16448
32
272
75
93
189
16386
16402
16498
16594
16626
16674
16696
16479
43
45
61
107
171
243
253
267
317
16432
16464
16480
16496
16672
16685
0
32
160
141
205
219
16660
16397
16413
16427
16445
16491
16507
16523
16525
16539
16557
16571
16587
16603
16611
16621
16635
16637
16651
16683
16699
80
100
104
106
116
120
132
134
180
228
276
292
308
16407
16429
16445
16507
16509
16549
24
54
58
118
198
214
262
288
304
16434
16466
16468
16482
16498
16594
16674
16676
16690
16667
11
13
43
45
77
91
107
157
171
187
189
205
217
221
251
285
16393
16469
16589
10
21
191
213
245
269
16420
16422
16452
16484
16548
16628
16676
16495
16511
16527
16529
16543
16559
16589
16625
66
178
296
1
63
97
223
16434
16450
16466
16482
16498
16530
16562
16594
16626
16674
16690
16559
16575
296
31
143
263
317
16528
16618
16447
52
158
308
16424
16600
16616
16495
16503
1
15
63
75
95
97
111
127
143
155
175
189
191
221
223
255
311
16418
16450
16486
16578
16690
16495
16577
16591
36
38
54
68
70
84
86
102
104
134
148
150
152
198
244
260
278
235
16386
16594
16397
16399
16429
16447
16459
16461
16463
16491
16511
16541
16591
16605
16669
16701
64
74
116
16392
16676
16459
16475
16477
16525
16541
16557
16589
16621
16683
16701
162
196
216
25
16388
16390
16518
16525
16539
16573
16589
16651
82
15
47
95
111
127
149
175
253
255
271
287
301
303
16452
16596
16660
16680
16477
16493
16523
16637
15
31
47
63
77
79
95
111
117
127
143
165
175
223
269
287
16418
16424
16466
16482
16498
16504
16514
16530
16536
16546
16552
16562
16568
16594
16610
16616
16626
16642
16658
16674
16690
48
180
192
208
228
278
304
16384
16400
16464
16470
16496
16608
16624
16644
4
36
102
15
45
49
95
109
141
159
161
173
191
193
225
255
303
16440
16498
16532
16580
16594
16507
16575
16591
180
296
302
16466
16468
16482
16488
16498
16516
16530
16532
16546
16562
16580
16594
16596
16610
16642
16644
66
114
130
162
194
264
290
63
111
239
303
16452
16468
16482
16484
16500
16516
16532
16546
16562
16564
16578
16594
16596
16610
16626
16628
16660
16684
4
8
68
84
100
132
148
244
256
16397
16415
16429
16475
16503
16509
16511
16539
16557
16575
16589
16607
16637
16667
16669
22
132
230
246
292
310
175
191
203
223
239
271
303
16466
16614
16676
16447
16513
16543
16573
16577
0
112
224
244
248
276
16488
16447
16479
16511
16559
16565
16639
16663
48
84
128
136
168
276
308
16434
16666
16399
16481
16493
16495
16511
16607
34
50
54
66
68
72
82
84
98
114
116
178
242
292
306
308
16632
16399
16429
16431
16445
16461
16477
16483
16493
16495
16525
16541
16543
16557
16589
16607
16653
16655
16657
16671
16685
16701
8
42
196
139
16395
16397
16411
16427
16429
16443
16445
16459
16461
16467
16475
16493
16505
16525
16571
16587
16589
16603
16653
16683
16699
16701
154
176
316
16390
16468
16488
16632
16664
16678
16696
16397
16413
16415
16429
16461
16605
2
306
13
29
31
161
16400
16576
16611
70
134
150
198
262
278
304
45
77
109
125
16388
16408
16480
16516
16544
16612
128
195
16422
16486
16534
16415
16509
16553
16685
6
150
230
61
77
157
169
253
269
16400
16566
16575
16589
16685
2
63
103
127
16488
16536
16616
16399
16415
16447
16463
16481
16511
16527
16565
16575
16577
16591
16607
16609
15
31
47
63
79
87
109
127
143
157
173
175
191
205
221
239
253
255
267
269
271
303
319
16420
16520
16429
16461
16531
16575
16639
16685
130
199
271
317
319
16457
16467
16475
16477
16601
16635
16701
296
79
93
95
109
143
175
191
223
229
239
255
271
301
16568
16399
16513
16575
16591
16615
16655
110
112
144
176
228
16440
16450
16514
16578
16674
16690
16692
16703
50
53
95
111
127
223
301
303
16448
16624
16457
18
31
47
155
159
191
207
239
255
269
319
16512
16572
16690
256
259
16386
16594
16429
16459
16461
16463
16491
16541
16543
16559
16589
16591
16653
16655
16671
34
52
66
98
114
132
162
178
180
218
226
228
63
16399
16415
16465
16483
16495
16517
16527
16541
16543
16573
16609
16637
16653
24
56
120
160
230
262
310
312
16386
16434
16436
16450
16466
16468
16482
16498
16500
16504
16514
16516
16520
16546
16552
16580
16626
16628
16644
16660
16676
16690
16692
8
168
184
199
257
273
319
16408
16468
16656
16495
102
13
45
125
189
213
16688
16696
16397
16413
16429
16493
16509
16523
104
168
314
1
29
47
63
79
81
97
109
111
129
159
161
191
223
225
239
303
16447
16461
16495
16525
16527
16541
16543
16553
16589
16607
16649
16685
6
260
312
67
195
16388
16402
16404
16406
16420
16438
16450
16470
16484
16486
16502
16534
16546
16548
16628
16676
16607
16623
6
54
63
79
95
121
303
16488
16660
16431
16445
16447
16479
16493
16509
16511
16559
16573
16587
16589
16637
16639
63
143
155
171
215
267
287
16399
16405
16447
16495
16517
16527
16575
16607
16661
16679
15
31
63
79
89
111
127
143
155
171
175
203
205
221
223
239
283
285
287
16452
16484
16548
16552
16564
16608
16628
16623
228
13
107
141
155
173
243
267
317
16428
16530
16546
16562
16626
54
150
137
177
16488
16399
16431
16465
16477
16493
16495
16529
16559
16655
0
8
48
64
192
208
224
16425
16541
16569
16607
16671
54
262
45
73
93
237
317
16580
16427
16429
16433
16459
16481
16493
16511
16525
16539
16557
16571
16573
16657
16671
16683
16687
15
29
31
61
63
79
89
111
127
141
187
255
285
287
289
16424
16432
16440
16480
16544
16660
148
73
77
109
125
157
189
205
16390
16550
16461
16493
16505
16509
16541
16589
36
38
70
102
150
278
296
35
211
16416
16702
6
38
86
198
246
125
141
169
205
16454
16470
16472
16486
16502
16518
16566
16582
16702
16527
80
108
128
16536
16397
16413
16435
16445
16463
16477
16481
16541
16557
16559
16579
16605
16653
16685
61
77
107
141
169
189
269
291
299
301
16386
16388
16394
16418
16514
16560
70
128
136
228
304
159
16440
16488
16520
16568
16415
16519
6
54
86
169
275
16436
16452
16488
16516
16548
16662
16393
16397
16559
77
169
189
275
16416
16459
16467
16699
110
112
118
176
180
16397
16399
16443
16447
16461
16507
16509
16511
16523
16527
16539
16543
16551
16555
16559
16587
16605
16619
16635
16637
16639
16685
16701
16703
80
82
84
98
104
112
130
136
148
162
164
166
178
180
260
308
16388
16420
16468
16470
16472
16486
16550
16564
16566
16582
16596
16612
16666
16445
16447
130
15
29
31
77
79
95
109
143
157
175
189
207
239
255
16392
16536
16598
16445
16461
16539
16541
24
56
84
112
144
264
16488
16389
16431
16447
16463
16565
16575
16591
16613
228
262
29
93
99
205
221
317
16552
16632
16399
16415
16431
16447
16453
16577
118
224
259
16410
16514
16626
16658
16690
16463
16479
48
54
208
224
93
141
16422
16598
16425
16671
16687
16
77
93
117
141
253
269
317
16452
16468
16486
16488
16520
16676
16397
16399
16541
16543
16575
16591
84
102
116
132
164
196
230
260
292
316
31
16470
16518
16532
16566
16598
16614
16646
16662
16680
16696
16445
50
234
63
77
125
175
16384
16461
16505
16509
16541
54
182
29
89
93
125
253
269
16406
16632
16413
16415
16529
16623
16627
16637
18
66
82
98
162
194
210
298
47
49324
32876
49180
49310
32777
32851
49180
32951
32953
32983
49155
49161
49177
49231
32954
33002
33050
33060
33068
33080
49174
49192
49206
49272
49288
49320
49350
49366
49368
49382
49183
49215
49247
49263
49341
49405
49421
49457
33052
33070
32809
49337
32915
32921
32967
32983
33001
49196
49269
32787
32983
49209
49431
32999
33059
33065
49155
49161
32774
32840
32888
32902
32936
32950
32966
33083
33087
49419
49431
49433
49459
32953
33047
49260
49308
49155
49185
32774
32812
32856
33025
33075
49209
32894
32958
49278
32915
32969
49334
49157
49201
49263
32780
32844
32938
32833
49209
49321
32958
32917
32983
49207
49209
32924
32938
49278
49310
49404
49452
33036
49161
49205
32784
32850
33047
33075
49187
49219
49221
49283
33062
32825
32839
49329
49339
49391
49397
49411
49429
33011
33063
33087
49276
49292
32848
32914
33075
33077
33079
49155
49177
49217
49263
49437
32942
32825
49260
32994
33040
33056
32777
32793
49353
49363
32814
32958
49366
49446
49159
49187
32806
32838
32854
32847
32861
32897
32927
32945
32947
32977
32991
33005
33023
33035
33041
33053
49239
49431
32871
32889
33017
49182
49452
32798
32972
49363
32830
32924
32938
49397
49403
49429
49443
49461
49180
49390
32958
33006
32837
49372
49347
33078
32805
32851
49157
49193
32790
32961
32993
33031
33063
33083
49276
49278
32830
32777
49278
49310
49324
49461
32830
33013
49308
49169
49177
49187
32819
32839
32921
49383
32876
49198
49342
49372
32771
32801
32805
32851
49234
49195
49275
49369
49433
49465
32769
32787
32793
32863
49212
49452
32771
32825
49377
49411
49431
49435
49439
49441
49447
49469
32940
32837
49340
32924
33027
49340
32796
33077
49276
32796
32830
49174
49318
49324
49372
32935
32967
33033
49211
49229
49345
49365
49391
49397
32988
33036
49388
32910
32972
49308
49422
33050
32823
32835
49361
49415
49447
49459
33007
33013
33019
33051
33075
33083
49176
49178
49192
49240
49270
49286
49352
49354
49231
49279
49377
49471
32940
32951
49190
49329
49347
49397
32788
33029
33047
33063
49310
49452
32798
49198
49212
33033
49401
49431
32889
49374
49438
32988
33022
49372
49209
49335
32963
32999
33017
33065
49366
49398
49157
49187
49329
32937
32967
33013
49212
49324
32958
32988
49228
49173
33006
32807
49156
49188
49190
49236
49309
49311
49389
49423
49439
49459
32830
32986
49276
49406
49351
49383
32844
32926
49222
49242
49256
49274
49338
49398
49424
49434
32776
32838
32842
32858
32890
32906
32952
32964
32968
32970
33010
33016
33034
33062
49442
49189
49209
32969
32999
49182
32776
32786
32840
32918
32954
32970
32978
32982
32986
33012
33014
33028
33044
33050
33064
49260
49276
49372
49452
49281
32998
33078
32775
32803
32817
49372
49209
32777
33029
33061
49216
49401
49411
49415
32792
32810
32906
32954
33002
33016
33076
32817
49335
49353
49363
32878
33002
33070
32993
49191
32892
33036
49161
49267
33068
49308
49404
32969
32983
32999
49171
49267
49397
32951
32967
33033
49203
49257
49267
32899
32915
32983
49177
49207
49233
32892
32897
49276
49205
32844
33022
33086
49222
49240
49272
49286
49327
49377
49405
49443
49457
32830
33068
32871
16440
16442
16444
16458
16476
16478
16490
16492
16496
16506
16508
16514
16538
16542
16556
16558
16572
16574
16576
16586
16602
16618
16650
16654
16656
16666
16688
16690
120
168
296
35
145
16552
16387
16417
16419
16593
16661
58
64
74
80
92
94
106
108
112
120
122
138
140
154
156
176
200
202
204
236
238
240
250
268
270
282
286
296
302
304
312
316
16426
16428
16440
16472
16474
16478
16526
16552
16584
16586
16602
16620
16652
16688
48
84
194
226
274
249
297
16478
16488
16490
16494
16506
16510
16526
16558
16608
16405
16469
12
69
85
161
257
261
277
309
16385
16481
16483
16513
16515
16529
16547
16627
16643
16675
175
179
16472
16504
16520
16534
16536
16552
16556
16680
16405
42
44
58
72
74
76
78
88
94
106
108
122
126
136
138
140
156
168
170
172
174
188
230
232
248
264
16467
16469
16481
16483
16497
16499
16501
16515
16579
16595
16611
16659
16661
9
105
185
189
217
237
249
16430
16462
16478
16510
16574
16666
16700
16487
16551
16553
2
30
98
112
169
285
297
301
16646
16433
16613
19
191
16414
16416
16440
16458
16462
16492
16506
16586
16590
16622
16636
16670
16519
14
7
9
23
55
83
87
103
119
121
167
199
215
16424
16428
16448
16464
16474
16538
16584
16604
16620
16626
16638
16670
16672
16698
16700
44
72
156
283
16414
16432
16558
16562
16697
16699
111
16682
16535
16551
16567
16595
16599
16615
16617
16647
56
60
70
72
172
232
197
16387
16389
16403
16405
16483
16499
16581
16595
16645
16691
42
56
58
60
72
110
128
152
154
176
192
202
234
248
258
264
282
16404
16414
16478
16510
16514
16528
16558
16560
16578
16644
16692
16551
88
104
136
152
172
198
200
115
16458
16478
16494
16538
16558
16606
16439
16471
16473
16519
16551
16567
16583
16599
16615
16631
16647
50
80
94
126
128
138
142
174
188
206
238
270
302
306
167
247
263
16600
16630
16694
16387
16419
16499
182
131
177
16552
16401
16499
16529
16561
7
71
87
153
179
231
279
295
311
16451
16483
16501
16517
16545
16547
16613
16645
16661
48
82
114
126
144
162
174
190
210
238
41
281
297
315
16392
16396
16414
16424
16472
16488
16506
16508
16510
16542
16552
16556
16558
16574
16586
16600
16604
16606
16616
16648
16680
250
5
85
157
16401
16419
16453
16467
16483
16517
16529
16561
16595
16597
16693
20
34
224
274
89
16552
16588
16614
16616
16652
16485
46
58
60
62
64
72
74
78
80
92
94
104
106
110
122
126
128
140
142
158
170
176
190
192
204
206
222
238
252
254
266
270
290
16460
16554
16558
16606
16634
16650
16666
16670
16702
16531
14
42
60
78
90
94
104
126
128
132
158
180
190
202
224
234
238
16426
16440
16442
16444
16458
16462
16478
16490
16508
16514
16526
16536
16538
16540
16554
16558
16576
16586
16606
16622
16624
16638
16640
16654
16656
16672
16674
16684
16700
78
126
286
302
23
211
243
247
263
279
16481
16483
16485
16529
16565
16597
16613
16659
16691
56
58
62
64
72
102
172
188
236
254
268
300
318
16398
16526
16574
16638
16391
16439
16471
16519
16567
16579
16631
16647
16695
126
190
41
201
205
251
16430
16682
16503
16519
16535
16567
16615
16627
204
131
165
211
261
283
16386
16414
16466
16478
16482
16496
16526
16528
16574
16592
16425
16699
40
60
72
76
86
124
136
152
168
170
248
262
16429
16461
16667
44
72
76
92
120
124
170
204
131
16390
16392
16396
16412
16444
16456
16520
16540
16552
16600
16616
16646
16648
16652
112
286
153
171
281
16390
16398
16400
16408
16440
16490
16508
16570
16574
16590
16696
36
46
66
68
80
96
110
114
126
158
162
190
222
226
276
308
16430
16462
16524
16528
16604
16682
16698
16581
16647
126
190
206
234
286
302
23
119
135
167
199
215
217
247
263
281
311
16404
16414
16660
16617
16697
120
17
19
35
67
83
99
131
275
16444
16387
16395
16405
16581
16645
8
10
12
14
24
26
56
58
74
90
94
122
124
142
144
170
184
186
216
218
238
240
250
270
16518
16395
16411
120
21
49
115
145
179
181
16446
16510
16686
16389
16405
16485
16565
16597
16613
16629
16645
16663
16693
132
190
308
185
16424
16472
16552
16499
16561
44
56
58
60
62
72
92
106
108
110
120
122
124
152
154
156
158
172
184
186
188
190
204
218
232
236
248
264
268
270
16392
16416
16424
16430
16440
16442
16458
16462
16472
16478
16494
16506
16508
16520
16536
16538
16540
16554
16558
16570
16584
16588
16602
16620
16
98
59
123
201
283
16522
16526
16542
16574
16638
16670
16686
16698
16702
16551
16569
16599
16679
16695
2
48
43
123
153
299
16430
16460
16522
16526
16542
16602
16620
16656
16684
16503
16535
16615
14
23
55
71
77
119
215
229
243
275
279
16394
16398
16430
16446
16570
16451
16487
16499
16535
16615
8
16
32
44
54
56
58
90
92
106
108
122
126
142
154
158
224
238
16414
16602
16455
16487
16519
16535
16625
16647
35
49
67
95
115
229
16419
16421
16437
16453
16455
16469
16489
16515
16533
16549
16563
16565
16597
16645
16647
16659
14
5
163
229
231
16398
16391
16451
16473
16513
16515
30
244
308
25
297
16426
16428
16430
16440
16442
16458
16460
16464
16474
16478
16504
16524
16526
16536
16538
16542
16554
16558
16570
16588
16590
16618
16678
14
26
44
46
62
78
110
142
190
206
7
37
39
87
103
16410
16430
16442
16446
16462
16474
16494
16506
16510
16526
16558
16586
16590
16618
16676
16631
30
78
174
238
286
302
7
39
87
135
307
16419
16527
16595
30
238
9
169
185
205
217
16608
16437
16451
16455
16501
16535
16567
26
30
40
46
64
78
92
120
124
170
172
200
208
218
222
272
282
286
288
300
318
16430
16462
16528
16556
16568
16391
16421
16423
10
78
254
286
316
39
117
135
295
16396
16398
16410
16414
16428
16448
16494
16558
16592
16608
16638
16640
16670
16688
16698
16702
16615
46
140
162
222
270
167
183
201
281
311
16398
16608
16391
16519
16533
16551
16553
16583
16617
16663
16679
16693
16695
102
108
134
150
168
172
1
16386
16398
16416
16434
16478
16482
16526
16528
16546
16558
16606
16585
16617
16649
16681
16697
2
30
50
82
260
313
16426
16430
16442
16458
16462
16490
16494
16506
16508
16510
16516
16526
16538
16542
16544
16558
16574
16576
16586
16590
16606
16618
16622
16660
30
178
292
249
16510
16455
16573
16631
16691
0
14
16
30
32
64
94
174
190
238
305
313
16384
16414
16416
16432
16462
16526
16389
16439
16537
16553
16615
294
83
113
131
177
16521
16605
16617
16685
46
78
138
142
174
206
254
302
318
215
233
247
263
311
16552
16630
16636
16547
16659
130
194
224
226
313
16412
16446
16478
16494
16574
16590
16469
16499
16535
16567
17
19
33
49
65
67
83
115
197
16694
16451
16517
16563
16641
296
83
179
259
291
16472
16536
16566
16419
16545
264
3
19
21
35
51
67
163
197
16384
16394
16396
16414
16430
16442
16448
16462
16476
16478
16510
16512
16526
16542
16544
16556
16558
16574
16584
16586
16590
16592
16602
16606
16618
16622
16638
16654
16666
16682
16686
16698
16702
62
94
110
142
190
206
238
286
83
99
135
147
211
16410
16414
16426
16430
16458
16460
16472
16478
16526
16536
16574
16588
16622
16632
16485
47
16435
16481
16483
16503
16517
16643
16645
16669
38
168
216
246
19
16434
16478
16528
16544
16439
16553
16583
16647
16679
88
104
120
136
216
248
294
310
19
16450
16510
16524
16526
16439
16471
16473
16519
16537
16551
16585
16613
16647
16663
72
134
136
230
293
16394
16622
16391
16471
16549
16553
16581
16679
16695
21
35
117
125
163
195
197
16406
16422
16486
16550
16662
16678
8
12
62
64
76
80
92
110
122
128
154
156
174
176
200
216
218
232
16506
16407
16449
16483
16531
154
158
218
161
199
211
16392
16394
16396
16398
16410
16426
16430
16442
16476
16478
16488
16490
16506
16510
16526
16542
16558
16574
16608
16612
16618
16622
16650
38
176
180
224
242
274
16534
16540
16552
16566
16581
62
78
82
110
222
21
101
16520
16540
16451
16547
16597
56
58
60
64
72
76
78
80
92
94
104
110
112
122
140
152
154
156
158
170
174
184
190
192
200
220
222
232
236
238
252
264
266
270
280
282
286
296
302
312
314
318
16401
16497
30
106
110
126
142
174
190
206
222
238
254
270
286
300
318
119
231
16419
16421
16513
16515
16517
16547
16587
16661
105
137
157
217
263
16604
16391
16409
16537
16631
16647
16679
16695
296
117
131
209
16392
16394
16396
16398
16410
16412
16414
16426
16428
16430
16444
16460
16462
16478
16526
16542
16556
16570
16572
16574
16604
16606
16622
16652
16654
16664
16670
16686
16696
16702
14
30
46
238
99
119
163
179
211
49309
49389
32829
32903
32907
49199
49255
32786
32848
32907
32965
49183
32815
49183
49291
32932
32980
33046
33066
49152
49199
49325
32799
33021
49364
49199
32796
32804
32836
33047
33083
49300
49364
49398
49464
32884
32783
32863
49263
32863
49247
49325
32772
32820
32950
32954
49184
49231
32909
32925
33021
49167
49213
49215
32900
32991
49247
32863
32991
49284
49325
49375
32783
32829
32991
49170
49167
32918
32946
33012
33014
33060
49339
49375
32809
32929
32937
33083
49200
49204
49302
49318
49334
49340
32959
49167
32939
32941
32977
49204
49252
49334
49396
32788
32934
49162
49423
32890
33007
33015
33039
33059
49316
49362
49279
32802
32882
49170
49179
32815
49228
49252
49348
49394
32768
32804
32916
32980
49356
49392
49420
49339
32786
32916
32911
49268
49405
32980
49156
49218
49270
49322
32815
49166
49262
49294
49310
49406
49291
49349
49355
49371
32786
32815
49373
49375
32788
32783
49168
49167
32991
49182
49266
49330
49179
49237
32993
33071
33073
33079
49201
49225
49313
49345
49403
32770
49176
49318
49348
32772
32796
32804
32948
49442
49291
49323
49349
33020
32871
32891
32955
49284
49279
32972
33030
32777
32857
49180
49204
49244
49302
49318
32895
49252
49382
33008
32863
49167
49279
32798
32926
32942
32779
32821
32857
32939
49199
32815
49173
49209
49323
32820
32934
32950
49170
49199
32796
32948
33012
33066
49281
49451
49457
32786
32815
33005
49266
49350
49429
32959
49247
49373
32784
32816
32844
32960
32976
32984
33016
33032
32789
49418
49167
32783
32863
32927
32991
49252
49292
49340
49348
49440
32939
32987
33003
49252
49318
49396
49450
32859
32863
49167
49213
32978
32980
33045
33077
49327
33007
49332
49430
49450
32809
32825
32965
33035
33063
33067
33083
49300
49364
49382
32972
32779
32807
32827
32875
32907
33049
49188
32809
32955
32977
32985
33015
33019
33063
33067
49244
49399
49423
49447
32772
32970
32998
33018
49220
49183
32895
49186
49426
49237
49285
32884
32863
49247
33008
32853
32901
49282
49167
49247
32868
32978
32807
33079
49204
49236
49258
49318
49348
32786
32927
49165
49199
32794
32852
32886
32932
49155
49241
49415
49431
49441
49447
49451
49463
32788
32783
49152
49166
49182
49184
49200
49214
49216
49230
49232
49248
49260
49276
49280
49296
49308
49326
49344
49356
49372
49388
49404
49406
49408
49420
49436
49440
49452
49429
32784
32939
33061
49421
32783
49247
49279
32815
32871
49418
49213
32779
32785
32843
32917
33079
49320
49213
32934
33050
33074
49179
49195
49221
49227
49237
49241
49323
49349
32820
32836
33077
49339
49397
49445
32779
32785
32807
32809
32849
32929
49263
49361
49377
49469
32915
32937
32955
32979
33003
33051
33067
49293
49375
32962
33020
32839
32891
49391
32811
32901
32939
32987
32997
33019
33081
49364
49412
49199
49247
32972
32795
32871
33081
49168
49222
49248
49334
49404
49436
32815
32829
49282
49311
32831
49313
49375
49451
33080
32879
33021
49309
49387
49391
32783
49351
49391
49399
32802
32818
32882
32978
33042
33058
33080
49270
49455
32779
32781
32829
32861
33047
33079
16417
16429
16481
16523
16545
16627
16673
148
31
135
265
16390
16481
16523
16555
16593
16595
16609
16627
8
14
24
30
32
46
48
58
64
74
76
78
80
88
90
92
96
106
110
112
122
126
128
136
138
140
142
144
152
158
160
170
172
174
176
184
186
188
190
192
200
202
204
206
208
216
218
224
230
236
240
248
252
268
270
272
280
282
286
288
300
302
312
314
318
3
5
7
117
131
211
213
16523
16525
16547
16589
16637
16691
16699
16
46
58
142
150
202
296
51
115
211
309
16544
16578
16604
16642
16397
8
10
16
22
30
46
58
64
88
108
112
122
136
138
154
176
184
186
200
218
224
230
232
240
264
268
272
274
282
288
296
302
314
3
85
99
101
147
215
16414
16520
16654
16429
16481
16513
16577
16643
16657
16701
190
61
81
179
189
209
225
243
283
305
16390
16510
16542
16566
16662
16678
16451
16499
16513
16547
16595
16609
16657
16675
16689
0
10
14
16
24
32
46
48
58
62
72
80
88
94
104
122
126
138
142
152
160
170
202
220
234
238
252
254
256
264
272
3
119
151
211
215
277
16402
16410
16464
16504
16540
16554
16624
16662
16674
16437
16469
0
8
30
40
42
48
60
80
88
96
106
112
120
122
144
154
158
170
172
174
184
200
202
216
218
222
240
248
250
254
264
280
286
5
21
71
85
125
141
151
183
197
211
213
215
16430
16438
16464
16484
16526
16558
16574
16578
16614
16626
16640
16652
16658
16666
16676
16690
16597
0
2
8
10
26
28
30
32
42
44
56
58
74
76
78
80
88
90
104
106
110
112
122
128
138
142
144
148
152
154
158
160
166
168
176
184
186
192
194
200
208
210
216
220
224
226
230
232
234
236
240
242
246
248
254
256
258
262
264
268
270
280
282
284
286
290
296
302
316
16392
16400
16418
16436
16442
16456
16458
16460
16470
16498
16506
16510
16518
16546
16556
16558
16578
16586
16614
16640
16650
16664
16684
16700
16389
16487
16597
24
30
44
72
76
78
88
94
122
136
138
158
190
222
232
238
254
264
280
284
67
85
157
293
307
16527
8
24
26
64
74
88
112
142
152
172
184
202
206
216
230
238
250
256
296
302
314
7
85
99
195
215
259
261
16416
16458
16552
16578
16612
16624
16650
16656
16565
4
79
125
141
16509
16573
16631
24
46
58
70
110
134
158
222
278
21
33
37
51
83
99
129
141
163
193
205
225
227
243
257
16452
16543
64
122
134
160
184
192
200
216
264
270
276
316
3
21
167
16400
16410
16414
16416
16426
16440
16444
16446
16448
16458
16462
16464
16472
16474
16478
16480
16490
16494
16496
16504
16506
16510
16512
16520
16522
16526
16538
16544
16552
16554
16558
16560
16568
16570
16584
16586
16590
16602
16604
16608
16616
16632
16634
16648
16664
16670
16387
16389
16403
16407
16469
16483
16499
16503
16515
16517
16547
16549
16565
16597
16647
16685
0
8
80
96
106
122
128
142
160
174
190
208
224
232
234
254
256
270
288
296
304
314
318
35
103
119
131
135
147
165
179
197
211
227
229
263
277
293
16398
16410
16414
16416
16424
16426
16432
16440
16442
16448
16456
16458
16462
16464
16472
16474
16478
16480
16488
16490
16494
16496
16508
16510
16522
16524
16528
16536
16542
16544
16568
16570
16572
16584
16586
16592
16600
16602
16604
16618
16624
16632
16634
16638
16640
16648
16650
16652
16654
16664
16666
16670
16672
16680
16698
16700
16387
16391
16419
16421
16437
16439
16467
16499
16501
16515
16547
16549
16565
16581
16645
118
196
228
1
97
179
209
273
16667
122
230
276
61
133
16390
16430
16446
16478
16520
16542
16568
16590
16419
16433
16445
16449
16451
16557
16593
16595
16683
16685
16699
10
28
134
278
13
16612
16632
16417
16545
16609
16611
16625
16689
0
2
8
10
18
24
26
30
42
44
46
48
50
56
58
62
64
72
74
76
78
80
88
90
92
94
96
110
112
122
128
136
138
140
142
152
154
156
166
168
170
174
176
182
184
186
188
190
194
202
208
210
214
216
218
220
230
232
238
240
242
246
248
250
254
256
258
264
266
268
270
272
278
280
290
296
298
302
306
314
318
261
16384
16392
16408
16414
16416
16428
16430
16432
16440
16442
16448
16456
16458
16462
16472
16480
16488
16490
16492
16496
16504
16506
16510
16520
16522
16524
16526
16528
16534
16536
16538
16542
16544
16554
16556
16558
16570
16576
16584
16586
16588
16600
16602
16604
16606
16608
16610
16614
16616
16632
16634
16648
16650
16652
16654
16656
16660
16664
16666
16668
16670
16672
16680
16682
16686
16694
16700
16439
16467
16469
16549
10
16
24
26
32
42
46
48
56
58
62
88
90
96
104
106
110
112
126
128
136
138
144
154
168
176
184
186
192
200
202
218
224
248
264
266
272
282
286
288
296
21
35
37
53
55
67
71
99
101
115
149
151
197
215
227
229
245
247
259
261
16440
16567
16637
16679
38
78
154
184
188
190
238
268
103
117
157
307
16463
16513
196
242
199
309
16422
16551
16665
10
16
24
26
32
46
48
56
58
62
64
78
80
88
94
96
112
128
136
142
144
158
170
174
176
202
206
218
222
224
238
240
248
254
256
266
268
270
272
296
3
7
37
53
67
69
85
117
131
147
163
165
179
183
197
227
229
245
261
263
275
307
16434
16464
16480
16544
16546
16554
16576
16578
16630
16664
16668
16682
16684
16694
16423
16597
16661
8
10
40
46
56
74
250
270
286
288
5
7
21
37
71
99
151
167
179
227
261
16392
16408
16456
16488
16508
16512
16538
16552
16610
16614
16628
16646
16658
16664
16517
190
260
1
13
49
81
97
109
155
157
275
307
16390
16408
16414
16426
16456
16494
16504
16542
16558
16582
16606
16616
16638
16646
16654
16664
16451
16597
16689
0
8
10
14
24
26
28
30
32
40
42
46
56
58
60
62
64
72
74
78
80
88
94
96
104
106
108
110
112
120
122
126
128
136
138
142
144
152
154
156
158
160
168
170
172
176
184
186
190
192
200
202
206
208
216
218
220
222
232
234
238
248
250
254
256
264
266
270
280
286
292
294
5
37
39
67
69
99
133
165
179
197
213
229
261
16408
16566
16686
16451
16517
16619
196
238
81
97
113
115
141
167
205
227
305
16388
16622
16397
16563
16689
24
80
120
136
138
218
232
240
87
103
117
147
227
307
16390
16644
16387
16397
16449
16509
16539
16571
16593
16697
16699
14
22
24
38
46
62
88
100
110
138
158
182
222
230
254
262
264
19
67
69
97
99
113
129
147
157
189
193
195
205
269
307
16398
16534
16562
16590
16634
16638
16662
16670
16678
16686
16487
16501
16565
100
132
131
257
283
16384
16392
16394
16396
16400
16410
16414
16426
16430
16432
16440
16442
16446
16448
16458
16462
16464
16474
16478
16490
16494
16506
16510
16520
16528
16536
16542
16544
16554
16558
16560
16568
16570
16574
16584
16586
16590
16592
16600
16602
16606
16616
16618
16632
16638
16640
16648
16652
16656
16664
16672
16682
16686
16688
16696
16698
16702
16389
16405
16435
16437
16439
16451
16453
16467
16469
16483
16487
16499
16501
16503
16515
16519
16531
16535
16547
16549
16565
16581
16595
16597
16599
16611
16613
16631
16643
16647
16677
110
222
286
19
51
99
109
157
205
225
273
305
315
317
16552
16558
16584
16616
16648
16397
16421
16493
16611
16627
16679
16695
10
14
30
40
42
46
62
78
110
126
136
142
152
158
174
184
190
200
206
216
220
248
264
270
280
286
3
35
37
45
51
53
69
83
85
101
115
117
131
149
179
195
197
227
229
263
275
291
301
311
16440
16468
16481
16659
16699
6
14
46
190
196
1
3
19
35
61
67
81
91
93
97
131
161
171
209
227
241
273
299
301
307
311
317
16454
16506
16676
16449
0
16
24
32
56
80
88
94
110
122
126
142
144
170
176
186
188
192
202
206
208
216
222
230
240
250
254
264
266
274
278
288
296
302
147
16388
16643
16699
24
30
40
46
78
90
126
142
152
158
174
216
230
232
270
280
296
19
35
67
83
115
157
163
165
213
259
16430
16518
16526
16630
16499
16643
16657
212
21
16472
16510
16520
16606
16660
16481
16483
16499
16545
16577
16611
16627
16657
16701
16
32
40
60
64
74
80
88
108
128
158
176
184
188
192
200
206
218
220
238
272
288
294
7
53
85
115
261
309
16394
16398
16400
16414
16416
16426
16432
16440
16458
16462
16464
16472
16474
16480
16488
16494
16496
16506
16510
16512
16522
16526
16536
16542
16544
16552
16560
16568
16570
16572
16574
16576
16584
16586
16608
16616
16618
16622
16624
16634
16638
16650
16672
16696
16698
16389
16391
16413
16437
16453
16469
16483
16487
16501
16503
16515
16547
16549
16579
16597
16611
16613
16629
16645
16677
6
14
22
42
62
126
230
232
238
254
3
49
81
147
157
165
195
257
301
305
16398
16520
16558
16692
16403
16483
16611
196
227
16408
16474
16550
16606
16614
16622
16638
16680
16686
16385
16465
16499
16501
16545
16579
16593
16637
16659
16683
0
8
10
14
16
26
30
34
40
42
58
62
64
74
76
78
90
94
96
104
106
108
110
112
120
122
126
134
136
138
142
144
154
156
158
160
168
170
176
184
188
190
202
206
208
220
222
224
230
232
234
238
240
248
254
256
264
268
270
272
274
280
282
286
288
294
298
300
304
316
318
69
99
103
197
213
261
16462
16494
16590
16616
16403
16417
16433
16459
16465
16499
16529
16541
16641
16659
16667
16699
254
19
219
235
243
301
311
16384
16392
16394
16398
16400
16408
16410
16414
16416
16424
16426
16430
16432
16440
16442
16446
16448
16458
16462
16464
16472
16474
16478
16490
16494
16496
16504
16510
16512
16520
16522
16526
16528
16536
16538
16542
16544
16552
16554
16556
16558
16560
16568
16570
16574
16576
16584
16586
16590
16592
16600
16602
16606
16608
16616
16618
16622
16624
16632
16634
16638
16640
16648
16650
16654
16664
16670
16389
16405
16407
16419
16421
16437
16439
16451
16453
16455
16469
16471
16483
16487
16499
16501
16503
16515
16517
16519
16531
16533
16535
16547
16549
16551
16563
16565
16567
16597
16599
16611
16613
16629
16631
16643
16645
16647
16659
16677
16691
24
11
45
209
16392
16432
16440
16442
16446
16448
16458
16462
16472
16486
16506
16510
16520
16526
16536
16562
16566
16568
16572
16578
16618
16622
16624
16626
16630
16648
16650
16652
16662
16664
16666
16668
16680
16694
16467
16469
16471
16583
30
40
62
74
78
88
94
104
110
136
142
206
222
254
270
302
55
67
83
125
131
149
307
16431
6
126
270
280
286
67
177
275
16384
16392
16394
16398
16410
16414
16416
16426
16432
16442
16448
16458
16462
16472
16474
16480
16488
16490
16506
16512
16520
16526
16528
16536
16542
16544
16552
16558
16572
16576
16584
16586
16590
16592
16606
16616
16618
16624
16632
16648
16650
16652
16654
16664
16672
16680
16682
16686
16696
16698
16389
16419
16421
16437
16453
16467
16469
16471
16483
16485
16487
16499
16501
16515
16517
16519
16533
16563
16565
16599
16613
16629
16643
16645
16663
24
54
62
90
150
184
266
67
99
163
289
16384
16392
16398
16400
16408
16410
16424
16440
16442
16448
16456
16478
16520
16526
16572
16588
16600
16606
16616
16618
16624
16634
16652
16662
16668
16403
16467
16485
16501
16503
16515
16517
16531
16551
16599
16611
16675
16677
196
209
265
16446
16494
16616
16493
16509
16515
0
6
8
10
12
14
16
26
28
30
32
40
42
46
48
56
58
60
62
64
74
78
80
88
90
94
96
104
106
108
110
112
120
122
128
136
138
142
144
152
154
156
158
160
170
174
176
184
186
188
190
192
200
202
204
206
208
216
218
222
232
234
236
238
240
242
248
250
252
254
256
264
266
268
270
272
280
282
284
286
296
5
19
21
23
35
37
51
53
67
69
83
85
87
99
101
115
117
119
131
133
147
149
151
163
165
167
181
197
199
211
213
215
227
259
275
277
293
16408
16416
16424
16426
16440
16448
16458
16464
16472
16490
16494
16496
16520
16528
16552
16558
16568
16576
16586
16602
16616
16618
16648
16650
16654
16664
16405
16455
16487
16509
16535
16549
16565
16567
16595
16597
16695
0
6
10
30
46
62
64
70
80
90
106
108
154
158
170
178
184
192
202
230
234
236
242
254
266
268
270
272
282
284
286
310
69
85
101
293
16489
124
182
69
241
16477
16519
16529
16589
16641
16685
16699
232
286
33
67
193
283
301
307
16384
16392
16394
16400
16410
16414
16416
16424
16426
16430
16432
16440
16442
16446
16456
16458
16464
16472
16474
16478
16480
16488
16490
16492
16494
16504
16510
16512
16520
16522
16526
16528
16538
16540
16542
16544
16552
16554
16558
16560
16568
16570
16572
16574
16576
16584
16586
16588
16592
16600
16602
16604
16606
16608
16616
16618
16622
16624
16632
16634
16636
16640
16648
16650
16652
16654
16656
16666
16670
16672
16680
16682
16686
16688
16690
16696
16698
16700
16702
16439
16453
16469
16503
16645
16677
16693
30
74
106
128
154
158
160
174
234
238
280
296
302
304
314
318
5
51
119
163
179
197
211
213
215
229
275
311
16398
16408
16418
16426
16430
16432
16448
16454
16456
16458
16464
16474
16480
16488
16496
16498
16502
16504
16506
16510
16520
16522
16528
16530
16534
16536
16538
16544
16552
16570
16574
16576
16578
16582
16584
16590
16592
16598
16602
16604
16606
16610
16614
16620
16624
16636
16638
16642
16646
16648
16652
16662
16668
16672
16674
16678
16680
16682
16684
16694
16597
14
24
117
129
179
283
16455
16551
16683
110
198
206
230
270
276
67
97
117
145
193
243
253
307
16398
16440
16484
16504
16560
16580
16610
16642
16656
16700
16405
16501
16597
10
24
26
48
58
64
80
92
104
122
136
138
154
168
170
172
174
182
184
192
206
208
216
234
248
250
270
282
294
296
87
151
16424
16435
16461
16477
16525
16613
16621
16
18
32
66
80
106
158
160
168
176
202
208
218
226
228
242
264
272
288
294
296
304
306
314
309
16432
16442
16480
16602
16608
16640
16471
16533
16547
16687
46
56
136
238
270
51
87
93
117
147
179
183
229
16400
16410
16430
16442
16456
16462
16478
16480
16512
16520
16526
16540
16544
16552
16572
16574
16576
16604
16616
16624
16634
16664
16666
16670
16672
16688
16696
16391
16413
16565
16693
142
286
113
163
171
243
253
283
305
16447
16543
88
9
19
16418
16470
16488
16496
16506
16542
16648
16389
16533
16595
30
72
158
232
270
13
69
135
215
16384
16410
16428
16440
16474
16478
16480
16528
16536
16560
16570
16590
16606
16616
16638
16648
16656
16672
16686
16405
16435
16499
16515
16533
16597
16613
16629
16631
16645
16661
14
24
94
158
206
222
35
49
51
65
81
83
93
97
115
161
163
179
227
253
267
269
299
301
305
315
16400
16410
16414
16416
16424
16426
16432
16440
16442
16448
16456
16478
16488
16494
16504
16510
16522
16536
16538
16540
16542
16544
16558
16570
16572
16576
16584
16586
16588
16590
16602
16604
16606
16608
16622
16632
16634
16640
16648
16650
16654
16656
16664
16670
16680
16698
16702
16391
16407
16413
16429
16487
16517
16595
3
19
93
125
131
187
311
313
16396
16404
16408
16442
16494
16550
16547
16549
2
8
58
76
108
110
114
128
138
140
160
176
182
184
208
210
214
226
240
242
246
254
258
272
278
288
290
294
296
298
85
16392
16398
16430
16446
16472
16494
16510
16526
16558
16590
16606
16622
16632
16638
16654
16664
16387
16451
16467
16483
16509
16531
16611
126
171
179
203
16416
16424
16446
16458
16474
16476
16480
16490
16496
16506
16512
16520
16522
16526
16542
16552
16606
16620
16648
16652
16670
16672
16682
16686
16696
16387
16419
16453
16469
16485
16499
16501
16515
16531
16535
16551
16595
16677
16691
14
16
30
32
40
42
48
56
58
62
64
78
88
94
96
106
120
126
128
136
138
154
160
168
174
184
186
192
200
204
206
216
218
224
234
240
248
250
254
266
272
280
282
286
288
296
302
304
318
21
37
103
131
133
183
16430
16438
16526
16542
16590
16606
16387
16405
16451
16499
16531
10
14
16
24
28
30
32
42
56
58
64
88
94
108
110
126
134
138
142
144
152
158
168
170
172
174
182
186
190
192
200
202
218
230
232
236
240
246
248
262
264
270
278
280
282
286
294
310
19
51
67
305
315
16568
16614
16387
16481
16595
16627
16657
8
18
48
56
58
74
76
78
90
104
118
126
134
138
144
158
160
168
170
218
226
234
238
264
268
270
274
278
280
290
37
39
16574
16644
16397
16515
16689
16701
46
56
62
78
94
110
182
190
206
232
19
49
83
145
147
241
243
305
16390
16398
16430
16542
16614
16644
16451
16467
16541
16689
16691
0
8
10
12
14
16
22
24
26
28
30
34
40
46
48
56
58
62
64
72
74
78
88
90
96
104
106
108
110
112
120
122
126
128
136
138
140
142
144
150
154
158
160
168
170
172
176
182
184
186
188
190
192
200
202
204
206
208
218
220
222
226
230
232
234
236
240
242
246
248
250
252
254
256
264
268
270
276
278
280
282
284
288
290
294
296
302
310
83
16462
16470
16532
16534
16550
16566
16602
16654
16664
16483
16515
16517
16563
16589
0
2
10
26
46
48
62
64
74
88
112
176
232
248
268
296
300
312
314
39
179
277
16622
16403
16501
16509
16547
16551
16563
16579
16593
16687
16695
0
16
26
30
42
56
62
64
78
80
88
90
96
104
106
110
112
122
128
142
144
154
160
168
184
186
200
208
216
218
220
222
224
232
234
240
248
254
270
280
312
3
7
29
39
67
71
83
101
103
117
131
133
163
179
181
195
197
215
227
229
245
275
16406
16504
16522
16632
16700
16453
16467
16469
16547
16685
10
142
232
270
35
83
157
163
165
213
259
275
16384
16392
16394
16396
16400
16414
16426
16430
16432
16440
16442
16446
16448
16458
16462
16464
16474
16480
16494
16496
16512
16522
16524
16526
16528
16536
16538
16542
16552
16554
16560
16568
16572
16584
16586
16590
16592
16600
16604
16606
16608
16616
16622
16624
16632
16634
16638
16640
16648
16652
16654
16656
16664
16666
16670
16672
16698
16387
16389
16391
16405
16421
16437
16439
16451
16453
16467
16483
16485
16531
16533
16549
16551
16565
16599
16613
16629
16643
16645
4
104
190
238
85
221
225
291
16529
16579
16657
0
8
10
16
24
48
60
96
108
154
194
200
206
216
222
224
228
230
246
262
272
310
21
151
213
16440
16536
16401
16541
16561
16587
16603
16619
16659
16683
16695
158
302
13
273
291
301
305
16532
8
32
34
42
58
78
86
94
114
138
142
172
198
200
216
222
240
250
262
266
296
300
302
103
149
213
16553
16
42
58
78
122
134
144
154
202
204
206
218
234
238
256
268
274
278
280
298
312
314
316
3
49259
49413
32876
33035
49286
49407
32815
32831
32837
49220
49209
33007
49292
49356
49205
49249
32972
32825
49218
49455
32901
33049
49286
32795
49401
33024
32891
49236
49260
49292
49308
49356
49253
33004
33048
32811
49205
49281
49301
49349
49429
32926
32809
32821
49216
49228
49244
49189
49191
49221
49253
49349
49395
49411
32810
33055
49383
32808
32984
33016
33064
33078
32785
32897
49215
32914
32871
49234
49364
32991
33059
49250
49431
32780
32818
33027
49418
49289
32770
32774
32780
32786
32798
32885
49422
49436
49157
49159
49175
49383
49399
32807
33009
49159
49317
49417
32793
32811
49231
32806
32848
32982
33068
49164
49212
49260
49272
49322
49340
49356
49368
49384
49400
49395
32782
32806
32826
32828
32842
32862
32924
32928
32982
32990
33002
49311
32815
49228
49449
32908
33017
33037
49248
49294
49366
49397
32863
49282
32980
33012
33028
49182
49212
49226
49228
49244
49246
49260
49292
49308
49358
49374
49406
49171
49301
49331
32793
49180
49192
49226
49278
49288
49352
49412
49418
49450
49466
33064
33066
32785
32929
49188
32811
49159
49301
49393
32796
32798
32828
32844
32874
32892
32896
32898
32908
32940
32942
32972
32974
33000
33020
33022
33024
49164
49294
49326
49356
49358
49366
49372
49267
32774
32776
32844
32936
33004
33077
49215
32810
32844
32920
33032
32833
49180
49196
49230
49246
49270
49272
49294
49308
49358
49366
49368
49372
49404
49422
49432
49446
49464
49445
32806
32854
33060
49406
49433
32954
32807
33041
33045
49282
49286
49334
32917
33001
49423
33078
33082
32911
49254
49177
32796
32812
32828
32858
32892
32910
32940
32958
32982
32988
33020
33022
33043
49225
32954
32945
33005
33025
33041
33045
49159
49161
49207
32980
33024
33076
49220
49434
49443
32827
33075
49404
49371
32796
32812
32814
32826
32830
32832
32840
32864
32874
32878
32890
32892
32904
32910
32922
32924
32958
33006
33047
32788
32836
49470
49193
49257
33007
49359
32896
32912
32926
32944
32958
33008
32779
49196
49308
49155
49171
49461
32959
49177
32828
32846
32892
32898
32938
32958
32960
32976
33020
49274
49434
49249
49265
49351
49441
32927
49417
49433
32815
49180
49196
49212
49228
49246
49276
49292
49308
49326
49388
49452
49466
49468
49470
49443
32774
32792
32796
32924
32940
32988
33018
33038
33048
33068
32995
49284
49302
49308
32910
32827
32885
49188
49236
32852
32888
32898
49159
49289
32814
32840
32862
32888
32890
32892
32926
32936
32940
32956
32984
32990
33004
33022
33052
33054
33066
33068
32787
32803
32837
32883
49222
32780
32976
33004
49220
49226
49254
32815
32831
49205
49219
49233
49271
49349
49397
32770
32780
32796
32798
32876
32974
33006
32839
49199
33017
49268
49364
32969
33047
33063
49216
49238
49254
49456
32821
32965
32993
33079
49311
33050
32937
49214
49244
49356
49169
33023
33055
49172
49335
33033
33077
49236
49316
49364
32926
33001
49167
49181
32796
32846
32862
32888
32892
32924
32936
32974
32990
33006
32999
49369
49397
32824
32844
32983
32999
33013
49235
49297
49333
49399
49413
32919
32953
49164
49220
49286
49332
49398
32843
32875
32889
49158
49218
33050
32833
49184
49230
49227
32874
32954
32869
32961
33045
49164
49212
49326
49330
49370
32994
32869
32951
49345
49359
32778
32780
32792
32796
32860
32862
32872
32894
32910
32942
32958
33047
49164
49178
49182
49184
49196
49198
49206
49212
49214
49224
49228
49230
49322
49356
49368
49370
49432
49450
32840
32870
32918
32930
32936
32954
32968
32990
33016
49228
49424
49307
32860
32924
33068
33031
49311
33042
32999
49160
49256
49338
49368
49370
49169
49363
32821
32923
49228
49274
49278
49308
49370
49390
49452
49459
49461
32780
32812
32892
32894
32908
32924
32942
32952
32956
33000
33004
33050
33054
33056
33070
33072
33086
32787
32819
49452
49285
49383
32780
32796
32818
32830
32860
32866
32924
32942
32960
32990
33004
33016
49314
49330
49332
32950
33023
49201
49439
32936
33042
32809
